18.58.13.625165,13619,13595,13650,10978,355,11764,18776,14577,12121,11294,12244,24480
18.58.13.662247,14355,12757,11355,10711,8853,14198,23947,11081,10614,12012,12317,553
18.58.13.699404,11975,11016,10555,12085,24235,15676,9307,10722,8799,13133,12384,548
18.58.13.735047,10294,10175,12467,11973,24262,10754,4922,11487,14197,13927,12674,16895
18.58.13.772608,9191,13299,13299,12395,4145,10174,7892,13916,16130,11844,12260,24486
18.58.13.810861,14145,14925,11815,10988,347,14045,21406,11119,10414,12643,12337,565
18.58.13.849932,11448,10937,10670,12122,24243,12502,5645,9479,13925,13593,12562,12516
18.58.13.888199,8391,12502,13278,12403,5005,10407,12256,14002,16036,12153,12303,24510
18.58.13.924897,13176,13744,14368,10841,334,10398,18300,14354,12959,11305,12190,24488
18.58.13.961287,14116,14750,11817,11068,357,13854,19472,12508,10337,10498,12196,474
18.58.13.997820,14726,11240,11417,11681,23713,15605,13062,10736,9126,13275,12414,532
18.58.14.035617,10300,9808,13029,11947,24258,10560,1028,13074,14340,13715,12450,24472
18.58.14.072701,9484,13237,13404,11353,323,9379,14737,13890,14431,11518,12265,24503
18.58.14.109737,14092,14051,13067,10974,368,13006,18705,14291,10403,10930,11974,504
18.58.14.147165,15732,11440,11371,10861,19443,14114,18402,10701,8895,12903,12366,562
18.58.14.184342,10592,10120,12321,12086,24257,11176,6045,11630,14374,14226,12547,24462
18.58.14.222789,9942,13330,13331,11926,3645,10478,7497,14038,15885,11953,12312,24504
18.58.14.257996,13091,13730,14264,11034,317,8838,15579,13875,13613,11332,12281,24500
18.58.14.294594,14109,14678,11841,10973,347,14019,21931,12716,10579,10500,12270,494
18.58.14.331761,13375,11009,10720,11731,24141,15328,11461,10699,9618,13323,12345,524
18.58.14.370587,9699,11904,13333,12432,14928,10482,713,13156,14155,11457,12215,24505
18.58.14.410630,14152,14684,11822,11000,352,13632,19034,13915,10629,11386,12150,23029
18.58.14.445398,14394,13064,11420,10906,4580,14154,24059,11350,10374,12164,12321,576
18.58.14.483304,11236,10915,11579,12170,24253,11620,5712,9671,13748,13361,12578,495
18.58.14.520101,10250,11165,13287,11940,22348,10466,926,13206,14284,13475,12425,24487
18.58.14.556846,11638,13659,13901,11355,401,8894,16167,13601,14305,11320,12123,24509
18.58.14.594368,14110,14665,11652,11089,1525,14126,20366,13114,10503,10606,12057,12942
18.58.14.629795,15771,11825,11599,10229,18748,14051,20129,10765,10312,11736,12240,533
18.58.14.665798,11911,10940,10571,11772,24253,15328,8234,10911,10833,13531,12422,514
18.58.14.702722,10550,10056,12875,12011,24269,10969,5152,11189,14360,14060,12460,24465
18.58.14.738947,8680,13580,13383,11582,1613,9373,13884,13953,14738,11188,12387,24509
18.58.14.775648,14100,13875,12970,10833,359,12322,21546,15615,10908,11362,12145,18224
18.58.14.812164,15113,10865,11215,11571,23968,16475,8633,10365,9057,13417,12414,553
18.58.14.851680,10150,8843,12807,12125,24267,9900,415,13152,14402,14312,12609,24469
18.58.14.889506,9898,13906,13341,11923,1610,9102,9633,15098,16116,11636,12321,24509
18.58.14.925772,14131,14451,13333,10986,345,11865,24290,17725,11029,11266,12217,16623
18.58.14.962296,15281,13059,11256,10060,10721,15474,24330,9687,9871,12446,12226,579
18.58.15.000135,10948,10401,11708,12263,24259,12093,394,6033,14222,13944,12372,4279
18.58.15.037807,8023,12567,13477,12645,19644,9118,457,14644,14352,13396,12614,24504
18.58.15.073960,12466,14443,14579,11128,325,6255,13549,16822,15196,11370,12417,24519
18.58.15.109644,14279,15747,12533,10862,384,13853,24300,19471,10184,10230,11868,522
18.58.15.147354,15916,10429,11067,11599,24252,18334,24322,6184,7482,12894,11782,602
18.58.15.183084,11445,9807,10301,12055,24259,15845,17348,1977,11887,13805,11096,541
18.58.15.219551,10117,9889,13334,12381,22011,8775,492,18354,15436,12401,13230,24543
18.58.15.258581,13829,15068,13016,10717,401,12727,22622,24358,10396,10785,12364,918
18.58.15.296583,16759,12149,11219,10511,22046,16293,24346,2112,7257,13953,11357,603
18.58.15.334066,10429,9473,11238,12265,24283,12306,608,386,14136,14003,11383,2345
18.58.15.370436,9329,11620,13189,12313,19357,9120,482,16612,14986,13003,13977,24536
18.58.15.408371,13469,14203,12853,10864,381,12241,24309,18056,10158,10282,12552,3368
18.58.15.446217,16227,12224,11370,10522,15568,14950,24358,10176,9686,12023,11772,594
18.58.15.482947,11207,10596,10681,12000,24258,16239,21453,11671,11471,13714,11053,563
18.58.15.519126,10395,9398,12613,12195,24292,11527,423,6185,14352,12927,11987,16923
18.58.15.555151,8798,13515,12930,11633,317,7507,10597,13858,12955,11086,12901,24502
18.58.15.594058,14103,15209,11111,11060,370,14519,24295,13115,10414,10105,11945,485
18.58.15.630908,14565,10971,11213,11522,23533,15768,19553,9811,8391,13397,12037,579
18.58.15.667640,10382,10301,12246,12036,24284,11116,406,9192,14579,14684,12549,24096
18.58.15.705591,9268,13504,13302,12223,4744,10012,435,14685,15394,12837,12665,24522
18.58.15.741154,13209,13788,14158,10956,331,9445,23969,16046,11865,10807,13011,24484
18.58.15.778166,14332,13127,11297,10595,7221,14706,24333,10850,10436,11556,12224,568
18.58.15.816011,11348,10849,10373,12009,24255,16718,10015,9887,10485,13678,11905,511
18.58.15.852376,10278,9965,12816,12072,21046,9957,464,13891,14376,14371,13021,24489
18.58.15.890333,12315,13873,14376,11092,329,8172,15179,14897,13862,11135,13799,24500
18.58.15.926737,14269,15127,11776,11027,359,14597,24298,12267,10115,10106,11803,497
18.58.15.964609,13905,10737,10319,12012,24258,15626,10584,9085,11541,13545,10483,525
18.58.16.002964,10255,11000,13275,12355,17295,9960,481,14961,14475,12686,13323,24525
18.58.16.040126,12069,14045,14265,11368,326,8293,5516,16248,13086,11277,13992,24515
18.58.16.076865,14013,15623,12035,10954,1160,14700,24347,11077,10011,10778,11405,549
18.58.16.114871,13077,10646,10194,11951,24246,16732,23781,6991,11140,13825,10572,557
18.58.16.152162,9937,9030,12424,12113,24298,10492,459,8273,14747,14167,12336,21296
18.58.16.188092,7916,13128,13495,11956,1714,8914,472,17082,16889,11601,13626,24533
18.58.16.225353,14180,14808,12861,10789,380,13837,24300,15097,9930,9883,12152,483
18.58.16.263515,16520,11402,11105,10716,20284,14758,24356,9090,9672,12520,10735,560
18.58.16.299170,11658,10632,10415,12066,24263,14314,21524,7944,12216,13742,10193,545
18.58.16.335529,10011,9450,12847,12114,24271,10455,463,13111,14357,13718,13354,24509
18.58.16.373747,12620,13860,14064,10902,344,10759,19221,15827,13214,11034,13445,24492
18.58.16.410569,14304,14835,11686,11047,367,14526,24318,11753,10352,10543,11926,567
18.58.16.448473,12673,10764,10558,12119,24259,14716,573,6476,13505,13415,11580,502
18.58.16.486407,10104,10752,13297,12198,19145,10092,473,13012,14263,13940,12813,24494
18.58.16.523302,11950,13747,14184,10922,330,13299,24287,17824,10661,11060,12398,9335
18.58.16.562171,15560,12550,11308,10553,14607,14569,24335,10053,9497,12079,12223,580
18.58.16.599037,11782,10859,11203,12059,24184,13968,877,9100,12666,13835,11809,491
18.58.16.635779,10369,10807,13290,12190,17120,9923,455,14499,15516,12260,12668,24524
18.58.16.673891,12853,13816,14240,10851,336,11213,24102,16658,11217,10815,12472,10515
18.58.16.712456,15903,12100,11171,10749,19273,14723,23944,9885,9311,12620,12091,586
18.58.16.750143,10973,10532,11839,12089,24274,11342,404,9966,14121,13944,12491,23097
18.58.16.788241,8609,13096,13292,11847,1721,9734,4161,14692,16250,11747,12885,24515
18.58.16.825632,14261,15223,12377,10850,358,13732,24290,15698,10440,10992,12776,11140
18.58.16.862075,15712,12514,11158,10514,17817,14506,24329,9455,8443,13244,11206,566
18.58.16.900887,10358,10226,12712,12064,24287,10554,435,11715,14505,14966,12989,22523
18.58.16.938477,8698,13883,14288,11174,318,7734,1419,15721,16478,11628,13433,24532
18.58.16.974748,13731,13823,13506,10805,353,11331,24273,17787,11871,11115,14068,24486
18.58.17.011020,14321,14296,11696,10645,6028,14939,24360,9420,10264,11908,11393,578
18.58.17.048932,11803,10745,10248,11956,24257,15811,11136,5575,11830,13752,10909,549
18.58.17.084929,10020,9042,12791,12186,24294,11007,439,5516,14250,14030,12258,14007
18.58.17.120939,7687,13192,13447,12586,4315,9468,482,16385,14769,13042,13059,24524
18.58.17.157211,12855,13975,13769,10820,367,12900,24292,21809,10746,11183,12643,12217
18.58.17.195855,16726,11990,11227,10388,17606,15108,24348,8432,8376,12984,11850,576
18.58.17.233402,10401,10179,11731,12253,24271,12003,405,5162,14163,13649,12178,4180
18.58.17.270817,7973,12735,13470,12679,6309,9661,456,15438,14917,12631,12843,24529
18.58.17.307101,12820,13931,14106,10840,350,12351,24296,19714,10840,11018,12687,24486
18.58.17.344348,14315,14045,11410,10907,3259,15153,24350,10146,10418,11727,11917,583
18.58.17.382713,11097,10792,10525,12232,24248,14889,383,5053,13605,13724,12267,3392
18.58.17.420440,8350,12519,13457,12730,9573,9653,452,15660,15301,12806,12916,24525
18.58.17.457678,13420,13852,13120,10795,376,13110,24292,17842,10448,11111,12364,19729
18.58.17.494729,14726,12828,10925,10518,12583,14903,24340,9503,10280,11945,12016,530
18.58.17.531525,12571,10739,10457,11687,24247,17360,16279,8374,8705,13449,12224,537
18.58.17.567724,9997,9426,12685,12139,24282,10708,409,10074,14569,14201,12472,9102
18.58.17.604047,7974,13214,13586,12387,7042,9800,628,15823,16285,12258,12382,24525
18.58.17.641003,13532,13849,14607,10856,344,10104,24291,18357,11405,10996,12825,24488
18.58.17.677012,14413,14854,11683,11004,1318,14968,24307,12642,10128,9772,12003,494
18.58.17.714085,14016,10816,10277,12071,24241,16861,4130,8928,9411,13273,12003,555
18.58.17.751100,10018,9334,12588,12044,24279,11177,405,8455,14567,14547,12628,24472
18.58.17.788269,8627,13455,13204,12151,3469,9062,3153,15923,16297,11390,12581,24515
18.58.17.825384,14243,14550,12891,10867,367,12888,24291,18427,10597,11058,12334,3100
18.58.17.862892,16286,11224,11273,10957,22898,16062,21243,8696,10571,13660,12072,558
18.58.17.900841,10043,9900,12891,12573,6090,9766,423,15832,16296,12367,12603,24517
18.58.17.941659,14150,13830,13504,10855,352,12325,24288,18748,11320,11038,12391,18241
18.58.17.978503,15784,12047,11279,10726,20232,14794,24337,9728,9800,11879,11956,533
18.58.18.015087,12145,10823,10727,12215,24247,15238,2528,8250,11223,13506,12135,529
18.58.18.051252,10197,9337,12643,12089,24278,11074,414,8904,14439,14623,12669,24470
18.58.18.088501,9536,13588,13622,11398,320,7410,15798,15648,14703,11189,12726,24498
18.58.18.126819,14267,14241,11583,11098,354,14638,24304,12288,10241,10393,12085,491
18.58.18.163191,15559,10999,10988,11878,24241,17224,15877,8993,9147,13645,11986,527
18.58.18.202014,10275,10663,13122,12073,24282,10621,413,11768,14469,14283,12444,16093
18.58.18.237718,8363,12949,13269,12016,322,8053,11949,15519,15147,11355,12624,24506
18.58.18.275524,14475,14609,12796,10898,370,13639,24303,18205,11160,11167,12385,13470
18.58.18.311864,16150,12052,11250,10578,16312,14762,24323,8444,9012,12284,12128,585
18.58.18.349061,11172,10738,10795,12203,24263,11913,391,7485,14403,13888,12424,2929
18.58.18.386875,8419,12421,13329,12514,5329,9802,1166,15268,14827,12560,12621,24522
18.58.18.424900,14080,14162,12657,10926,367,14692,24307,12506,10235,10067,12050,514
18.58.18.464594,12688,10814,10191,12046,24246,16752,2813,8627,12038,13671,12025,521
18.58.18.501301,10014,9516,12825,12047,22975,9959,431,12367,14453,14030,12590,24480
18.58.18.539346,11850,13895,14502,10919,328,8821,23946,15369,14067,11066,12663,24496
18.58.18.576697,14351,14605,11586,11092,358,14902,24346,10300,10267,10816,12086,537
18.58.18.614751,12429,10766,10199,12052,24246,16874,4411,8997,11388,13499,12125,514
18.58.18.651358,10179,9718,12974,12031,24284,11081,402,9486,14469,14686,12624,24463
18.58.18.687730,8283,13468,13434,11467,477,9058,7297,15558,16099,11276,12556,24500
18.58.18.725689,14262,15267,12179,10932,369,13818,24297,14931,10330,10975,12299,12049
18.58.18.762094,16335,12127,11288,10566,16494,14806,24341,10001,10293,11285,12027,574
18.58.18.798360,11789,10856,10449,12132,24252,14030,380,7689,12718,13590,12239,463
18.58.18.836154,9564,12487,13490,12605,7620,9866,993,15513,15194,12581,12834,24502
18.58.18.872999,12495,13784,14693,11107,323,8041,19063,15374,13276,11156,12508,24504
18.58.18.908654,14216,14972,12416,10883,363,11783,24293,17992,11981,11157,12959,24506
18.58.18.943149,14321,14524,11374,10835,6608,14891,24306,12313,10247,9856,12123,490
18.58.18.980311,13890,10996,11119,11937,24246,16915,9477,9175,8712,13442,12173,544
18.58.19.017171,10150,9355,12709,12163,24273,12255,396,7048,14085,13660,12422,839
18.58.19.052490,9957,11508,13289,12309,16291,9811,456,14106,14297,14462,12578,24490
18.58.19.089308,12010,13860,14302,10878,338,10550,24289,17003,11765,11165,12496,24487
18.58.19.127074,14280,13423,11342,10877,2615,14936,24324,11470,10371,9983,12007,1123
18.58.19.162666,16154,11249,11221,11439,23008,16548,22408,9224,9131,12663,12202,583
18.58.19.199096,10915,10877,10673,12150,24252,15206,384,6500,13036,13663,12305,496
18.58.19.235290,10092,10101,13095,11997,24274,9861,440,12862,14438,14726,12599,24477
18.58.19.272213,11234,13840,14478,11239,320,8065,23014,16663,12131,11146,12584,24494
18.58.19.310528,14367,13566,11484,11048,4372,15012,24340,11385,10247,10020,12074,483
18.58.19.346033,16048,11521,11326,11359,24193,17178,18500,8691,9076,13279,12201,569
18.58.19.383221,10333,10557,12167,12154,24271,11133,400,9113,14356,14367,12298,18180
18.58.19.420253,8117,12956,13507,12462,5439,9671,2609,15576,15747,12518,12534,24515
18.58.19.456050,12427,13765,14418,11007,326,8947,22273,16461,12318,11132,12244,24494
18.58.19.493793,14382,13888,11462,10938,6605,14936,24333,10564,10343,10659,12118,532
18.58.19.531014,12135,10812,11630,12206,24240,13594,467,8494,12452,13756,12209,481
18.58.19.569102,9656,11248,13186,12633,13558,9734,450,13149,14473,14603,12749,24470
18.58.19.604657,9331,13535,13654,11474,318,7381,18110,15311,14040,11327,12573,24487
18.58.19.643058,14250,14306,11458,10718,5449,14821,24321,11090,10376,10809,12084,539
18.58.19.680670,12932,10830,11726,12099,24257,13227,403,7234,14227,13724,12541,21107
18.58.19.721032,8636,13443,13186,12341,2584,9787,570,15524,16310,12195,12495,24517
18.58.19.756080,12415,13869,14236,11030,321,7646,21954,15865,12710,11094,12584,24490
18.58.19.793600,14282,14043,11489,11008,784,14914,24327,12565,10346,9730,12055,1464
18.58.19.828559,16669,12009,11279,10732,19030,14886,24320,9036,8944,12371,12162,580
18.58.19.864956,11699,10909,10626,12083,24245,13734,416,5904,12819,13425,12208,497
18.58.19.902067,10109,11017,13281,12015,24257,9791,428,12237,14463,14656,12601,24483
18.58.19.938725,11376,13925,14513,10998,338,7717,22221,16083,12603,11054,12610,24491
18.58.19.975699,14329,15338,11892,10973,371,14424,24295,13729,10102,9909,12112,485
18.58.20.013163,14473,11053,10955,11718,24249,16855,3273,8796,11765,13639,12275,524
18.58.20.051058,10116,10100,13337,12223,19688,9762,442,14959,14246,13711,12553,24508
18.58.20.088904,11941,13855,14472,10998,334,8367,22108,15791,12777,11120,12628,24489
18.58.20.125860,14269,15260,12134,10905,359,14305,24298,12731,10225,10040,12151,531
18.58.20.161909,16321,11703,11249,10752,22129,15468,21814,8970,8552,13275,12157,576
18.58.20.199039,10776,10505,12112,12127,24274,11883,382,6642,13738,13664,12378,7671
18.58.20.236770,8230,13013,13480,12331,6694,9749,2720,15506,15586,12580,12278,24522
18.58.20.273287,13354,13769,14332,10938,336,11831,24292,18117,11439,11183,12218,21357
18.58.20.310925,15390,12887,11252,10480,7434,14863,24343,10163,10492,11646,12091,569
18.58.20.347681,11994,10770,10419,12110,24249,14460,378,6367,13797,13499,12398,490
18.58.20.385465,9761,11698,13484,12134,17395,9700,445,14400,14306,13227,12545,24493
18.58.20.421817,11081,13793,13906,11641,308,7361,16592,15247,15020,11389,12446,24520
18.58.20.458387,14545,15200,11914,10932,359,14554,24298,13946,10262,10046,12102,487
18.58.20.495368,16422,11247,11201,11279,24245,17027,13014,8868,9970,13604,12202,524
18.58.20.534482,10108,10630,13291,12216,19075,9646,453,15002,14655,13106,12552,24497
18.58.20.572077,11882,13844,14517,10943,329,7805,22852,16183,12738,11083,12393,24493
18.58.20.610076,14332,13188,11282,10440,14770,14887,24316,9230,10094,11461,12165,562
18.58.20.647131,12819,10826,10236,11992,24250,16548,5870,9047,11287,13586,12188,516
18.58.20.684722,10226,10640,13215,12115,23881,9842,448,14360,14313,13179,12504,24496
18.58.20.722359,12385,13921,14562,10910,342,10420,24279,17860,11681,11362,12486,24486
18.58.20.760394,14604,11690,11309,10608,16387,14920,24333,9216,9319,12458,12207,574
18.58.20.798006,11554,10850,10616,12110,24254,15069,1256,9168,10425,13515,12245,520
18.58.20.834152,10193,10267,13107,12028,23475,9763,441,12608,14397,14535,12546,24480
18.58.20.872006,11866,13851,14212,11100,325,8335,22736,16492,13121,11165,12313,24491
18.58.20.909412,14480,13210,11265,10645,11489,14889,24329,10345,10457,12260,12240,586
18.58.20.948104,11197,10902,10556,12189,24258,15644,808,8371,11621,13639,12049,525
18.58.20.983714,10224,9418,12549,12051,24279,10065,414,11916,14346,14632,12561,24463
18.58.21.021025,9883,13789,13542,11313,320,7590,9660,15359,15609,11536,12468,24520
18.58.21.059033,14351,15009,11807,11000,350,14701,24316,11723,10281,10193,12087,501
18.58.21.096061,14588,10887,10914,11749,24248,16856,11335,9132,10310,13695,12319,538
18.58.21.133198,10227,9355,12887,11980,24042,9892,456,14251,14390,13533,12565,24518
18.58.21.172724,13072,15356,11985,10966,367,14924,24350,9822,10449,10774,11996,514
18.58.21.213174,13535,10902,10930,11775,24251,17338,18810,8796,8969,13404,12130,568
18.58.21.249786,10194,9560,12611,12114,24287,10066,474,12027,14616,14595,12674,24474
18.58.21.287584,9909,13635,13615,11384,322,7261,10790,16044,15383,11199,12637,24521
18.58.21.323906,14031,13817,13623,10868,358,12094,24287,19660,11091,11043,12531,16129
18.58.21.361035,16229,12358,11244,10434,14510,14968,24339,8761,8649,12386,11954,550
18.58.21.397173,12367,10791,10289,12111,24264,13837,386,5474,12877,13728,11905,505
18.58.21.434711,10286,11444,13425,12615,6762,9814,455,15420,16053,12433,12705,24517
18.58.21.472129,12441,13879,14489,11086,324,7599,18386,16629,12355,10809,12909,24481
18.58.21.509496,14226,14157,11425,10536,7797,14991,24343,9750,10274,11405,11907,573
18.58.21.547283,12111,10839,10931,12187,24250,15025,606,6521,12885,13812,11880,509
18.58.21.584245,10275,11282,13293,12240,15912,9735,467,14677,14480,12564,12676,24513
18.58.21.622360,12835,13884,14405,10985,327,8008,18329,15713,15123,11110,12595,24519
18.58.21.657625,14154,14243,13132,10883,371,13456,24293,15871,10347,10880,12429,13113
18.58.21.694345,16155,11828,11249,11156,23304,16526,22848,8816,8505,13467,12024,560
18.58.21.732372,10335,9846,12542,12101,24285,10601,427,10813,14613,14964,12673,17674
18.58.21.769684,8210,12965,13352,12346,3304,9482,449,15975,15409,12317,12731,24532
18.58.21.806695,13695,14048,12689,10935,381,12974,24299,19864,10967,10922,12581,20194
18.58.21.843434,14798,12625,11282,10499,14873,14886,24342,9268,10028,11894,12032,524
18.58.21.880009,12839,10790,10322,12094,24245,11183,412,4367,13800,13580,12356,4993
18.58.21.919287,8192,12834,13420,12606,9347,9652,471,15980,15225,12373,12555,24523
18.58.21.957109,14013,14320,13156,10784,369,13374,24296,18284,10359,10314,12137,1525
18.58.21.994589,16335,11562,11314,10693,22343,14947,24344,9140,10338,11602,12048,527
18.58.22.029798,12976,10757,10454,11870,24245,16876,6490,6850,11384,13763,12067,547
18.58.22.066101,10229,9298,12892,12034,24282,10152,434,7782,14525,14842,12606,23991
18.58.22.103712,9308,13389,13249,11632,842,7646,4216,16654,14487,11335,12625,24529
18.58.22.140988,14283,14990,12533,10855,370,13708,24297,17891,10170,9774,12126,1579
18.58.22.177961,16380,11927,11248,11173,23150,16678,23633,7602,8237,13179,12075,592
18.58.22.214661,11082,10777,11927,12101,24280,10972,414,9227,14618,14723,12656,24472
18.58.22.254117,10277,13901,13461,11438,479,7503,1148,18103,16546,11557,12645,24525
18.58.22.290768,14186,14890,12767,10879,360,12699,24296,23771,10600,10980,12489,7759
18.58.22.327458,16497,12070,11215,10540,13860,15283,24353,7461,10344,11478,12034,512
18.58.22.362629,13869,10750,11024,11812,24250,18182,15562,5460,9706,13258,11907,569
18.58.22.399227,10163,9717,12087,12116,24292,11259,430,2641,14460,13903,12637,21967
18.58.22.436708,8653,13389,13413,11604,352,7656,505,19209,16077,11535,12623,24526
18.58.22.473297,13788,14299,12842,10858,377,13822,24303,21659,10256,10383,12189,532
18.58.22.511807,15682,11017,11035,11818,24241,18437,22508,5277,8592,13369,12204,570
18.58.22.549216,10009,9518,12485,12030,24293,9900,442,10245,14502,14702,12313,24182
18.58.22.586453,8122,13117,13471,12562,4642,9246,458,18814,15403,12901,12568,24520
18.58.22.622296,13101,13932,14330,10928,335,8402,22612,19519,13068,10984,12359,24502
18.58.22.658594,14381,14524,11676,10763,4016,15564,24343,10913,10249,10365,12098,502
18.58.22.695558,14625,10991,10878,11386,24248,17684,24326,5691,8172,12849,12268,603
18.58.22.731278,10830,10699,11191,12202,24264,15263,4747,4030,12518,13713,12134,479
18.58.22.768045,9600,12247,13448,12548,7392,9194,465,18251,15731,12206,12553,24529
18.58.22.806559,13948,14296,12464,10846,385,13780,24291,24186,10759,11131,12220,550
18.58.22.844445,16586,11400,11352,10965,22888,16773,24323,5321,8449,13518,11972,582
18.58.22.882157,10206,10160,12222,12186,24270,13451,640,515,12608,13521,12309,498
18.58.22.917318,10357,9918,13174,12397,20616,9271,475,16280,14294,13809,12593,24498
18.58.22.954163,11146,13869,13932,11233,323,6334,14485,18772,13704,11389,12469,24486
18.58.22.991932,14031,15004,11736,11083,684,15023,24297,16656,10243,10044,12296,484
18.58.23.028170,15655,11423,11742,10826,19202,15424,24323,6060,8319,12947,12468,587
18.58.23.064983,10247,10825,12094,12145,24282,11282,405,4911,14255,13600,12724,472
18.58.23.102166,7219,13011,13550,12384,6761,9317,461,16370,15437,12395,12129,24516
18.58.23.138649,13071,13795,14416,10901,331,10656,24299,19618,12105,11087,11907,24486
18.58.23.176298,15606,13124,11302,10811,3584,15331,24324,12157,10304,10680,12363,488
18.58.23.212129,15173,10847,10547,11932,24247,17645,5053,6571,10880,13381,12642,543
18.58.23.248902,9570,10231,12227,12051,24283,10643,407,8456,14576,14333,12530,24379
18.58.23.286649,7906,13576,13566,11632,1721,8099,4571,16968,15370,11290,12180,24504
18.58.23.324586,14937,14923,11356,10959,4922,15393,24319,11824,10388,10664,12362,497
18.58.23.362357,14264,10934,10690,11802,24239,18192,5246,7596,11570,13568,12766,511
18.58.23.400686,9470,11515,13481,12429,8987,9336,434,16030,14250,13066,12379,24507
18.58.23.437705,11376,13833,14494,11100,312,6429,18924,16979,13630,11258,12047,24510
18.58.23.473675,14822,15022,12606,10983,365,14765,24292,15550,10320,10074,12284,492
18.58.23.511627,16303,11085,10962,11873,24242,16279,2585,5338,12103,13576,12755,522
18.58.23.549647,9721,9978,13095,11982,23411,9742,425,12530,14528,14525,12431,24477
18.58.23.586676,8452,13473,13595,11353,323,6601,21132,16557,14126,11081,11995,24494
18.58.23.625151,15016,14046,11352,10646,10438,15409,24339,9447,9784,11977,12408,574
18.58.23.663755,11236,10806,10332,12146,24247,13268,384,3739,13866,13549,12811,8732
18.58.23.702564,6797,13329,13200,12232,4929,8852,460,16039,15478,12509,12144,24521
18.58.23.738943,14027,13681,13190,10904,352,10398,24236,20596,11390,11380,12111,21756
18.58.23.776484,16785,12343,11164,10249,12488,15586,24328,8005,9534,12222,12413,567
18.58.23.812823,13178,10694,10016,12081,24245,18046,1616,6491,12500,13729,12874,483
18.58.23.851152,8437,11928,13402,12498,17863,9112,440,15696,14700,12371,12174,24518
18.58.23.889262,14139,13816,12933,10832,372,12372,24291,20490,10898,11150,11985,1420
18.58.23.927019,18132,12053,11360,10504,13670,15573,24343,9450,10514,11578,12243,556
18.58.23.963704,11061,10899,10656,12173,24267,12497,383,3839,13733,13489,12741,7346
18.58.24.002023,6320,13240,13561,11994,3314,8410,4847,16728,16222,12047,12115,24521
18.58.24.039305,14225,13757,13740,10836,363,13072,24292,19175,10959,11239,11879,12103
18.58.24.076538,17413,12162,11170,10794,19588,15426,24327,8258,8700,12780,12615,573
18.58.24.113306,11674,10873,10087,12075,24254,13626,378,4684,13527,13544,12918,481
18.58.24.150993,8486,11323,13593,12589,17713,9181,445,14946,14417,13279,12274,24503
18.58.24.187989,12746,13702,14544,10969,331,7675,23250,17169,12643,11196,11876,24494
18.58.24.224267,15393,15156,12404,10906,370,13513,24302,17243,10634,10673,11998,1248
18.58.24.260252,17871,12111,11197,10385,18309,15444,24346,9187,10194,12363,12549,549
18.58.24.295883,13108,10897,10131,12051,24246,14865,1117,6017,12435,13447,12818,524
18.58.24.333060,9439,10343,13167,11981,24280,9967,447,16506,16036,11432,11842,24512
18.58.24.373303,14929,15094,12249,11058,366,14956,24305,13156,10452,10093,12373,489
18.58.24.411315,16213,11017,11235,11043,20274,15604,23694,8356,8441,13097,12628,564
18.58.24.448401,9535,10166,12028,11976,24284,10718,400,8446,14415,14485,12325,24472
18.58.24.486042,7489,13359,13256,12148,4345,9253,680,16495,16274,11536,12047,24522
18.58.24.522696,14511,13665,13054,10912,355,14775,24299,15165,10258,10236,12284,491
18.58.24.561454,15297,11040,11251,11133,21229,16051,21654,8155,8346,13091,12633,560
18.58.24.598613,9549,9981,12224,12049,24282,9932,416,9946,14398,13818,12764,2423
18.58.24.635388,7312,13218,13410,12269,8373,8996,671,16691,16101,11743,12084,24516
18.58.24.673066,14772,14772,12262,10887,366,15139,24296,16651,10375,10553,11898,7415
18.58.24.710418,17874,11799,11174,11042,22132,16716,21627,8186,8703,12815,12658,585
18.58.24.746873,11420,10926,10869,12119,24258,13266,378,4092,13086,13430,13043,506
18.58.24.782905,9387,10478,13406,12045,22854,8943,439,13940,14322,14694,12468,23581
18.58.24.819367,7863,13387,13581,11712,1052,6486,13062,16428,15825,11257,11988,24509
18.58.24.856276,14756,14128,12869,10923,368,14650,24290,15871,10282,10446,12292,485
18.58.24.894370,16646,11189,11060,11642,24044,18824,13122,8160,8952,13420,12752,537
18.58.24.932204,9203,9963,13092,11922,24273,9476,423,12475,14359,14866,12496,22929
18.58.24.969340,8317,13331,13476,11948,672,7981,5813,16430,16041,11521,12055,24505
18.58.25.007110,15042,15068,11743,11023,1443,15796,24344,11548,10365,10393,12229,484
18.58.25.044624,15674,11084,9964,12002,24243,18506,3698,7845,10423,13578,12871,540
18.58.25.081908,9332,9575,12491,12038,24271,10671,402,9294,14414,14685,12295,21107
18.58.25.118488,6581,13025,13706,12333,5032,8904,2162,16378,16276,11867,12020,24512
18.58.25.156264,14701,14063,12839,10737,393,13533,24295,19751,10962,11373,11859,16762
18.58.25.192905,17391,12361,11348,10533,5879,15695,24339,9709,10188,12454,12509,576
18.58.25.229436,11404,10996,10188,11762,24258,18437,8913,8249,10454,13539,12866,522
18.58.25.266183,9618,9901,12993,12088,23844,9212,434,13101,14343,13933,12427,24471
18.58.25.302605,7921,13558,13658,11653,1235,8160,8695,16424,16182,12335,11920,24517
18.58.25.339039,14540,14299,12354,10876,375,13027,24294,18675,10439,10990,12030,3477
18.58.25.376853,17873,11950,11170,10989,22590,16863,19111,8227,8762,12994,12582,576
18.58.25.413489,10523,10890,11183,12014,24255,13709,381,4197,13743,13538,12980,623
18.58.25.450107,9257,10966,13093,12022,23996,9390,429,12953,14346,14354,12229,24491
18.58.25.486750,11058,13699,14707,11193,330,5843,13461,16414,14708,11214,11888,24500
18.58.25.523620,14885,15092,12200,10968,367,14489,24298,17749,10481,10726,11969,11876
18.58.25.559187,16574,11965,11320,10596,14097,15637,24326,8336,8513,12985,12239,580
18.58.25.595938,12053,10906,10177,12069,24251,14607,384,5778,12944,13354,12909,482
18.58.25.633290,9294,11043,13284,12199,17056,9007,444,15044,14270,12731,12119,24511
18.58.25.671009,12923,13770,13871,10869,332,11653,24289,20010,11232,11287,11653,24488
18.58.25.707864,14936,14464,11470,10950,366,14655,24291,16164,10329,10684,12065,3003
18.58.25.743444,18461,11817,11327,11124,22703,16355,23325,8371,8793,12336,12683,583
18.58.25.779836,10975,10927,10521,12045,24248,14869,386,5391,13241,13435,12972,712
18.58.25.816844,8950,11414,13334,12656,11184,8998,425,16220,16117,11929,11844,24513
18.58.25.855562,14385,13801,12606,10914,370,14334,24295,15397,10348,10343,12309,620
18.58.25.893188,17926,11953,11153,10616,21542,15529,24154,8409,8798,12933,12613,578
18.58.25.930702,9907,10721,11901,12047,24271,10723,403,6497,14277,13495,12352,13302
18.58.25.968293,6761,12902,13219,12694,13798,9041,439,15294,14374,12727,12118,24523
18.58.26.004362,12939,13835,14699,10959,336,7991,23405,16428,14003,11234,11980,24509
18.58.26.039420,15038,14200,12782,10892,368,13329,24298,17234,10436,10893,12104,1883
18.58.26.076801,17696,11303,11119,11658,24240,18345,15927,8402,9137,13022,12652,551
18.58.26.115321,9579,9626,12821,11972,24276,10313,405,9168,14300,13921,12377,22199
18.58.26.151495,6669,12984,13385,12632,9358,9008,707,16264,15706,12572,11903,24520
18.58.26.187712,13190,13620,14720,10840,335,10532,24289,20469,11211,11198,11707,18176
18.58.26.225361,15595,12912,11216,10670,5166,15676,24331,10518,10416,11774,12461,530
18.58.26.262154,12386,10836,9875,12001,24256,17345,1427,6501,11707,13429,12806,548
18.58.26.297814,9149,10233,12467,12073,24275,10068,413,11870,14416,14669,12316,24475
18.58.26.335949,9079,13779,14176,11254,338,6368,21372,16184,13577,11096,11809,24485
18.58.26.374146,14873,14951,11778,10959,367,14997,24308,12974,10370,10287,12540,490
18.58.26.411297,14116,10929,10479,11561,24222,17384,16979,8278,9072,13220,12782,549
18.58.26.448354,9209,9642,12922,12053,24282,10355,402,9831,14283,13840,12771,6906
18.58.26.483888,7563,12452,13957,12471,20642,9005,448,12701,14364,14797,12484,24228
18.58.26.518265,6871,13087,13576,11923,2476,7310,4125,16284,16176,11676,12024,24509
18.58.26.556528,15018,15086,11896,11040,1300,15277,24314,12057,10353,10553,12463,556
18.58.26.595368,12891,10942,10159,12035,24248,15113,377,4695,13416,14647,11919,21853
18.58.26.635303,7386,13585,13619,12028,3866,9017,2556,16369,16188,12029,12037,24517
18.58.26.670783,13066,13872,13718,10839,356,12645,24290,18492,10860,11016,12146,10439
18.58.26.709010,17299,12778,11234,10546,11103,15974,24284,8858,10402,12293,12564,569
18.58.26.745911,11456,10971,10702,12129,24257,17374,2114,7311,12207,13580,13043,496
18.58.26.782395,9437,10962,13410,12327,20870,7779,446,13779,14351,14362,12236,24496
18.58.26.819535,10473,13580,13894,11545,324,3249,16230,16653,15377,11597,12022,24514
18.58.26.855083,14572,13683,13718,10830,346,11999,24294,20825,11145,10947,11834,20667
18.58.26.892116,16629,11734,11317,10875,17527,16959,24328,8344,9356,12220,12794,583
18.58.26.929185,11383,10945,10086,12071,24266,12757,398,5371,14223,13980,12899,7485
18.58.26.967546,6536,12745,13495,12621,15697,7535,448,14399,14234,13086,12049,24500
18.58.27.003159,11383,13815,14665,10950,322,4960,22703,17495,13219,11236,11657,24486
18.58.27.040261,15036,15161,11996,10961,367,15522,24291,16535,10357,10424,12157,494
18.58.27.077690,14550,10991,10901,11549,23645,18732,19638,8024,9073,12832,12738,578
18.58.27.113758,9859,10560,12122,12152,24287,11756,386,4862,13940,13499,12976,8922
18.58.27.150554,7106,12869,13590,12459,2999,7690,4177,16279,16079,12164,11944,24525
18.58.27.187362,13671,13811,14737,10984,337,8558,23373,18106,11719,11223,11687,24488
18.58.27.224368,14866,14114,11536,10984,5032,16765,24337,9419,9967,12560,12731,581
18.58.27.263353,10182,10905,11331,12184,24268,13042,383,4526,13540,13472,13145,487
18.58.27.299676,9038,12101,13564,12691,14236,8060,451,13472,14279,13823,12101,24514
18.58.27.337190,12977,13690,14661,10924,335,9564,24287,19831,11346,11228,11797,14008
18.58.27.375082,16101,12985,11319,10599,8289,16487,24336,12370,10369,10765,12605,503
18.58.27.411157,13901,10928,9967,11968,24248,20263,7514,8016,10922,13416,13193,504
18.58.27.449114,9667,11201,13450,12619,12596,8175,433,15728,14224,13155,12014,24521
18.58.27.486794,12695,13702,14759,10971,332,8648,23107,18216,12012,11104,11703,24489
18.58.27.523959,14879,14186,11422,11166,422,16261,24325,11634,10382,10343,12415,488
18.58.27.560439,15604,11254,11336,11469,24246,19218,13450,8274,9330,13361,13028,564
18.58.27.596874,9894,10663,11592,12221,24267,12327,396,6504,14114,13103,12941,3010
18.58.27.633266,8061,11706,13507,12220,23154,8317,444,12873,14372,14299,12250,24509
18.58.27.670736,13558,13724,14538,11068,331,6451,20609,16477,13108,11212,11641,24486
18.58.27.706609,14979,15122,12091,10998,362,15675,24296,15669,10566,11196,12043,20630
18.58.27.741357,15659,12932,11307,10639,12064,16370,24335,8921,9414,12003,12615,564
18.58.27.778909,11213,10914,10594,12210,24253,17325,768,6101,12899,13622,13001,482
18.58.27.815739,9325,11342,13316,12120,21328,8217,447,14789,14260,13948,12237,24471
18.58.27.852020,8929,13406,13721,11326,315,5886,11844,15717,16108,11914,11971,24515
18.58.27.888715,14521,14468,12788,10923,372,15491,24298,13230,10444,10201,12178,494
18.58.27.926494,17159,11093,11166,11560,24252,19647,13257,8416,8850,13362,12714,582
18.58.27.962590,10805,10967,10760,12166,24249,15734,1589,6760,12620,13466,13052,511
18.58.27.998564,9442,10534,13200,12047,24276,8738,425,13173,14359,14569,12464,24479
18.58.28.035440,9060,13727,14718,11251,319,5443,20757,16397,12977,10921,11825,24500
18.58.28.072365,14873,14582,12777,10907,365,12092,24292,19753,11655,11518,11693,18043
18.58.28.107884,15442,13495,11317,10716,3525,16463,24336,10264,10532,11855,12713,546
18.58.28.145036,12089,10968,10091,12103,24253,14502,403,5215,13196,13418,12948,1576
18.58.28.183476,7128,12618,13736,12573,12280,8332,432,15558,14299,13366,11944,24513
18.58.28.220223,12802,13591,14727,11187,324,4359,17768,16019,14524,11237,11976,24511
18.58.28.255145,14717,14124,12691,10894,372,14559,24301,17037,10405,10613,12179,486
18.58.28.293204,16338,11429,11571,11547,23356,19202,21300,8308,8506,13146,12814,580
18.58.28.329307,10634,10894,10082,12017,24245,17123,790,6801,12049,13441,13000,553
18.58.28.363811,9568,9898,12570,12013,24276,9267,421,12126,14358,14009,12478,24460
18.58.28.401688,8021,13680,14402,11206,319,4759,18022,16333,15100,11363,12018,24496
18.58.28.439634,14904,15056,11713,11013,358,15847,24307,12511,10481,10297,12259,490
18.58.28.476922,15394,11236,10876,11543,24250,18377,16935,8208,9074,13399,12581,541
18.58.28.514406,9551,9573,13024,11991,22668,8324,438,13969,14370,13967,12259,24476
18.58.28.552107,9852,13645,13824,11593,314,4762,17165,16287,15544,11295,12017,24508
18.58.28.589262,15127,15126,11932,10957,361,15612,24294,15176,10395,10439,11953,4689
18.58.28.625101,17054,12638,11186,10626,19561,16239,24323,8541,9249,12273,12685,586
18.58.28.662418,10738,10989,11207,12154,24259,10570,396,8973,14237,13848,12729,19527
18.58.28.701045,6987,13144,13535,11724,1722,7648,1320,16158,15922,11949,12027,24521
18.58.28.737381,13888,13685,13365,10850,375,15265,24302,16181,10380,10599,12069,2863
18.58.28.775215,17537,12258,11212,10483,18102,16135,24346,9284,9871,12677,12409,557
18.58.28.812817,10479,10968,11402,12236,24258,12541,382,5857,14246,13820,12978,13364
18.58.28.850021,7144,12659,13514,12594,8428,8451,1139,16191,16132,12291,11999,24524
18.58.28.887214,13866,13798,13788,10924,367,13616,24292,18055,10604,10822,12025,1532
18.58.28.925863,17573,11397,10989,11055,23174,18458,19059,8222,8489,12698,12492,578
18.58.28.962749,10309,9883,12603,12105,24279,9310,412,9610,14260,14558,12422,22791
18.58.29.001267,7662,13388,13655,11571,422,5274,13405,15974,14867,11591,11793,24508
18.58.29.038645,15017,14807,12824,10776,368,14244,24296,17443,10773,11314,11884,21394
18.58.29.074608,16431,12321,11185,10541,12700,16345,24338,9619,10483,12274,12731,537
18.58.29.110632,13702,10951,10788,11733,24251,19771,11174,8430,8745,13326,12813,555
18.58.29.147141,9351,9624,12702,12054,24273,9670,408,11139,14386,13919,12826,5598
18.58.29.183067,7320,12665,13716,12534,11153,8409,417,15978,15498,11987,11917,24521
18.58.29.220980,14284,14215,13021,10802,347,12498,24290,18997,10916,11300,11380,16015
18.58.29.258188,17034,12024,11195,10853,22189,16431,24323,8738,9018,12472,12717,568
18.58.29.294636,12447,10927,9989,11878,24246,17652,875,5415,12646,13615,13021,550
18.58.29.330910,9519,9970,12957,12037,24276,9665,405,6945,14276,13727,12835,10258
18.58.29.367010,6659,12785,13485,12190,1617,6124,12173,16156,16190,11730,11917,24523
18.58.29.404037,14079,13649,13990,10865,336,6503,23432,16370,14108,11233,11678,24484
18.58.29.439421,14989,14765,11707,10997,363,15360,24288,14488,10400,10307,12211,487
18.58.29.476488,15738,11062,10501,11804,24238,20041,17426,8508,8538,13267,12734,573
18.58.29.512594,10235,10906,11177,12132,24255,14571,430,5662,13469,13299,13140,484
18.58.29.548490,9512,10278,13346,12333,21211,8313,442,14107,14357,14049,12195,24495
18.58.29.585997,12244,13783,14286,11188,326,5079,20735,16022,12994,11166,11794,24485
18.58.29.623262,14741,14050,11439,10993,7498,16248,24334,10165,10144,12707,12745,573
18.58.29.662387,10389,10682,11943,12111,24277,11538,395,8025,14370,14342,12506,21645
18.58.29.700265,7116,12706,13554,12264,3277,7861,6790,15698,15696,11891,12071,24509
18.58.29.738194,14590,14377,12998,10860,357,13831,24293,18612,10889,11115,12006,884
18.58.29.775218,17054,11978,11179,10824,18526,16191,21560,8795,8805,13088,12559,576
18.58.29.812599,10460,10927,10941,12159,24256,11078,391,8924,14350,14424,12429,21895
18.58.29.850331,7496,13025,13472,12570,7791,8826,428,15397,14914,12429,12246,24516
18.58.29.886305,12819,13682,13918,10948,336,7294,21366,15814,12776,11205,12021,24509
18.58.29.922537,14532,14961,11717,11056,3034,15831,24310,11673,10331,9940,12485,492
18.58.29.959980,14280,11091,10569,11827,24248,18491,11705,8983,10018,13555,12482,510
18.58.29.998111,9757,10318,13360,12020,23119,9061,421,12644,14230,14046,12213,24496
18.58.30.035379,11302,13722,14468,11011,338,8298,22121,16370,12649,11064,11989,24483
18.58.30.072835,14521,14321,11578,11076,465,15269,24297,14112,10353,10675,12276,473
18.58.30.109198,16245,11205,11194,11346,24182,19154,10258,8938,10686,13817,12849,520
18.58.30.147297,9813,9545,12817,12002,24275,9358,416,13742,14296,13702,12165,24489
18.58.30.185668,12169,13771,14335,11310,320,5935,14636,15836,15473,11545,12042,24512
18.58.30.222153,14586,14925,11928,10984,371,14343,24296,19150,10857,11284,11898,24222
18.58.30.257490,15851,12444,11108,10507,15475,16089,24324,8997,9283,12636,12538,576
18.58.30.295044,11107,10931,10249,12068,24248,19080,6831,8856,9985,13602,12850,520
18.58.30.331451,9810,10800,13267,12419,17191,8632,441,14798,14443,12832,12413,24523
18.58.30.369599,13045,13650,14547,11106,328,7164,22919,17110,12264,11209,11891,24489
18.58.30.406408,14534,14411,11350,10954,2433,15676,24317,11756,10423,10639,12208,560
18.58.30.444033,12551,10883,10030,11809,24246,17996,2945,8675,10426,13497,13141,523
18.58.30.480987,10130,9739,12577,12041,24268,9105,419,12056,14417,13552,12453,24489
18.58.30.518968,12309,13647,14691,10981,342,10768,23739,16474,13656,11211,11852,24482
18.58.30.556776,14515,13485,11398,11109,4607,15803,24346,10683,10576,11442,12529,553
18.58.30.594354,11906,10894,10630,12155,24250,15850,1846,8591,11338,13393,12574,540
18.58.30.630487,9959,9492,12690,12103,24280,10511,397,9576,14435,14313,12615,12156
18.58.30.666640,7600,13208,13393,11868,895,6229,19915,15621,13841,11037,11978,24493
18.58.30.705827,14508,14987,11691,11022,949,15569,24312,11777,10479,10465,12452,521
18.58.30.743241,13912,11048,11007,11782,24243,18503,2169,9094,10497,13581,12557,561
18.58.30.779268,10183,10514,12553,12096,24282,10533,395,8739,14321,14525,12282,23901
18.58.30.816993,7894,13278,13367,11683,688,5873,15088,15855,15376,11116,12087,24508
18.58.30.855297,14595,15015,12405,11011,359,15334,24304,14371,10392,10579,12298,475
18.58.30.892419,15935,10869,9989,11947,24242,18726,5568,8624,11288,13770,12750,541
18.58.30.930355,9886,9550,12766,12087,22491,8839,427,12625,14500,14469,12507,24470
18.58.30.967544,9102,13341,13553,11536,316,5583,14425,15897,15057,10943,11825,24512
18.58.31.004780,14545,14525,12878,10971,370,14640,24293,14624,10088,9818,12201,482
18.58.31.041901,16678,11294,11117,11588,23742,18079,16563,8499,8745,13859,12203,541
18.58.31.080353,9810,9727,12704,12113,24273,9027,447,12382,14702,15201,12605,24441
18.58.31.117195,8525,13483,13441,12083,777,7603,2638,16109,16857,11062,13253,24513
18.58.31.153985,14231,13563,13413,10979,374,12432,24291,18854,10495,10599,15307,23934
18.58.31.189862,14570,13139,11255,10551,16476,15553,24340,9698,10005,11441,10176,537
18.58.31.227258,12100,10911,10171,12002,24247,18848,6282,8700,11709,14833,6742,533
18.58.31.264240,10032,10343,13266,12064,24252,8982,461,13162,14867,15660,14284,24480
18.58.31.301496,11306,13615,14476,11003,338,5707,19834,15567,13699,9990,19302,24501
18.58.31.338251,14411,15050,12409,10904,376,14195,24292,17592,10392,9695,11445,1394
18.58.31.375297,16278,11661,11362,10900,19030,15788,24324,9109,8374,13124,8286,582
18.58.31.411663,10827,10967,10696,12170,24254,15933,385,5602,12818,14488,6181,488
18.58.31.447949,10104,10710,13295,12173,24120,8868,469,13919,14638,14304,16017,24511
18.58.31.485182,11960,13814,14473,10965,332,6086,22208,16413,12691,10307,19990,23797
18.58.31.523706,15267,12967,11240,11159,20849,15902,470,15356,15070,13144,16544,24531
18.58.31.568811,12743,13767,14622,10999,344,5657,18164,16502,12369,9942,20865,24506
18.58.31.606044,14483,14121,11375,10696,8580,16207,24358,10823,9619,10038,8438,583
18.58.31.643835,12238,10867,10152,12029,24258,15195,2152,6526,15352,18210,14668,24483
18.58.31.683744,8448,13329,13517,12154,2865,8552,482,16107,17456,11247,16695,24533
18.58.31.720468,14300,14106,12161,10914,393,15498,24304,13831,9282,6116,13338,882
18.58.31.758506,16457,11611,11121,10843,23351,18229,24330,8488,6987,14894,8255,589
18.58.31.795504,10179,10663,11683,12194,24267,15448,21286,7186,12432,15853,5809,556
18.58.31.830535,9776,10214,13235,12100,24293,8308,507,13551,15785,18436,15000,24503
18.58.31.867740,10549,13791,14612,11161,345,4422,449,16132,14678,8843,20552,24509
18.58.31.905665,14464,14708,11716,10979,370,16149,24342,12125,8962,6805,9746,503
18.58.31.942201,15580,11118,11041,11140,24264,18282,24327,8573,7244,15498,6321,550
18.58.31.980540,9956,10351,13262,12342,21568,8418,496,13068,15494,18230,14578,24487
18.58.32.017987,11370,13804,14150,11224,336,5386,6979,16124,13900,9190,18076,24492
18.58.32.055868,14419,14310,11472,10714,2856,16003,24349,11135,9556,7036,9211,515
18.58.32.092388,15033,10581,10406,12017,24241,19444,24208,9444,7990,15153,8093,561
18.58.32.129400,9958,9473,12733,12095,24291,10284,467,12301,15366,17992,12156,14362
18.58.32.166436,7898,13384,13433,12138,2467,6733,476,15790,18318,11601,16661,24540
18.58.32.203088,13680,13818,14232,10839,366,11835,20309,18222,11288,8710,17623,18998
18.58.32.240545,16108,12618,11114,10358,8579,16216,24373,9808,8147,10971,8246,583
18.58.32.276642,12783,11071,10287,11984,24248,18301,23974,7483,12705,15995,5048,555
18.58.32.313192,9845,9466,12755,12298,24298,9502,472,12068,15593,19370,11967,22322
18.58.32.350064,8498,13543,13424,12078,3250,6668,479,15928,18647,10414,16591,24541
18.58.32.387115,14271,14233,13070,10764,372,13422,24095,17921,9579,8846,18136,18927
18.58.32.424030,16693,12107,11181,10727,22051,17112,24334,8672,6102,14498,8298,588
18.58.32.462499,9821,9855,12501,12203,24294,10695,445,8074,15422,18238,12568,24251
18.58.32.499674,7803,13438,13482,12179,5257,8547,487,15658,18137,11038,16238,24538
18.58.32.535810,13349,13776,14616,10825,350,11306,24309,18067,11605,9290,19461,24456
18.58.32.573490,15661,12787,11333,10335,13621,16052,24358,9329,7693,12839,8199,583
18.58.32.610695,11510,10931,11272,12185,24261,15027,5175,6896,12725,15224,4854,521
18.58.32.647413,9940,11117,13464,12294,23616,8712,488,13692,15250,16407,15918,24531
18.58.32.685392,13161,13753,14475,10935,350,8436,23777,18238,12146,9649,20281,24509
18.58.32.721497,14198,15182,12021,11002,384,14791,24303,14835,9476,6808,11081,500
18.58.32.758517,15860,11339,11429,11406,23984,17928,24327,9115,7040,14663,8067,582
18.58.32.795519,10110,9643,12608,12193,24289,9427,455,12086,15205,17602,14973,24516
18.58.32.834687,12037,13763,14341,11310,344,6128,9569,15581,15070,9545,18199,24527
18.58.32.871430,14537,15061,11953,10900,380,14878,24303,11637,9429,6887,11002,495
18.58.32.908679,15126,10820,10504,11944,24259,18289,23960,9061,10569,15694,4689,535
18.58.32.946885,9943,9924,13075,12117,24294,9224,462,11812,15380,19284,15264,24501
18.58.32.984843,12350,13657,14464,11144,332,5370,441,15981,14845,8743,18647,24519
18.58.33.021416,14562,15427,11775,10978,2727,16353,24362,11265,9186,7639,9460,513
18.58.33.058581,15333,11443,11151,10975,20448,16830,24346,9070,6405,12511,8183,600
18.58.33.093913,11247,10880,11202,12240,24280,13768,6076,5490,14176,16515,4525,524
18.58.33.131122,9235,11028,13456,12271,21464,8143,506,14189,15716,16560,16246,24521
18.58.33.168110,12292,13807,14698,10993,342,5489,452,15738,15751,8327,17871,24521
18.58.33.203782,14557,15513,12333,10792,397,14607,24302,15141,9035,6900,13880,11041
18.58.33.240154,16440,12792,11134,10632,17771,16352,24360,8941,5784,14473,7962,606
18.58.33.278139,10340,10284,11706,12204,24290,10714,477,13220,15650,19289,12818,18827
18.58.33.315932,7897,13057,13543,12651,8526,8390,498,15252,16478,11965,16784,24546
18.58.33.352606,13831,13792,13371,10663,384,13423,24311,18366,11111,9117,18331,22101
18.58.33.390015,15926,12981,11316,10430,12900,16243,24374,10476,9498,9491,9104,546
18.58.33.426609,12211,10910,10185,12145,24262,15057,610,6207,12996,15576,4080,497
18.58.33.464315,9826,10845,13332,12650,15125,8485,491,14842,15794,13320,16756,24540
18.58.33.502125,13268,13896,14537,10861,345,9651,24185,17177,11900,9312,20520,24483
18.58.33.539114,14348,12606,11067,10693,3299,15869,24351,11244,9594,6601,10423,490
18.58.33.574713,16061,11320,10908,11454,23717,17181,24332,8937,6533,14071,8099,601
18.58.33.611272,10605,10878,11394,12186,24280,11524,433,9515,15395,17174,11959,19936
18.58.33.648989,7651,12900,13466,12831,16394,8278,498,14198,15326,17487,15562,24512
18.58.33.684081,11057,13770,14623,11137,332,4448,451,15616,14902,9134,20443,24527
18.58.33.721170,14273,15131,11948,10914,380,15991,24305,13809,9142,6298,10476,491
18.58.33.758020,16121,11328,11242,10711,20226,16269,24358,9473,8390,12695,8076,606
18.58.33.793760,11396,10882,10865,12140,24252,15995,20096,5200,13655,15771,5185,500
18.58.33.831167,9346,12134,13549,12718,14703,8349,492,15046,15528,15290,16334,24512
18.58.33.867549,11754,13795,14694,11152,339,5109,430,15530,17443,10440,16970,24533
18.58.33.902984,14079,13983,13131,10799,382,12172,24301,18582,10027,9270,19176,22624
18.58.33.939875,15805,12565,11291,10419,17773,16074,24351,9066,6962,14021,8091,594
18.58.33.977620,10748,10882,12172,12288,24276,12678,412,6252,13879,15051,4937,485
18.58.34.014363,9492,12284,13515,12816,15570,8520,494,14140,15215,16073,15948,24521
18.58.34.051539,12837,13741,14170,10944,348,10920,24294,18618,10637,9325,18750,21576
18.58.34.089727,15597,12521,11227,11840,24247,19195,21814,9242,10468,15045,4859,534
18.58.34.129989,10157,9851,13110,12501,22225,8634,495,13982,15120,15285,15691,24513
18.58.34.167478,11808,13661,14704,10984,347,9491,24298,18456,11051,9423,19952,24492
18.58.34.205365,14328,14297,11671,10971,378,15131,24307,14506,9488,8304,12442,582
18.58.34.241204,15911,11419,11218,11226,23194,17883,24321,9234,7820,14873,8137,587
18.58.34.278325,9740,9432,12414,12174,24299,9566,455,11420,15407,17389,13221,20851
18.58.34.316063,8425,13491,13405,11903,2204,8397,476,15706,18030,10500,16908,24542
18.58.34.352583,13923,13961,13727,10697,353,8768,4687,18796,11940,8838,20958,24499
18.58.34.388894,14532,14089,11002,10687,5548,16443,24374,10476,9215,5722,9801,518
18.58.34.425637,13529,10970,10903,11515,24141,18641,24341,8339,5977,14881,8166,580
18.58.34.461760,10091,9714,12504,12199,24301,9793,447,9948,15956,19057,11642,21604
18.58.34.499471,8183,13343,13569,11574,324,4101,470,16516,17593,8874,17262,24524
18.58.34.537610,14646,15383,12269,10834,394,14545,23979,20450,10735,8100,20867,24502
18.58.34.572534,15232,12766,11171,10260,8416,16830,24375,9767,8615,9065,8198,609
18.58.34.609642,11779,10807,9991,12048,24256,19641,24319,6427,12502,16022,4626,527
18.58.34.646578,9947,9982,13206,12128,24296,8342,476,9659,15842,19094,11923,15487
18.58.34.681930,7357,12878,13481,12773,1472,5640,466,16244,18495,10550,16782,24534
18.58.34.719600,14397,14728,12281,10874,396,15111,24330,15164,9235,8353,12278,780
18.58.34.757488,16290,11236,11036,11783,24149,17911,24322,8501,6502,15390,8441,591
18.58.34.794219,10200,10923,11301,12208,24259,13297,1054,5242,13868,15087,8031,4537
18.58.34.831282,8273,12545,13346,12658,11930,8482,495,14691,15118,14612,15392,24494
18.58.34.867529,12297,13863,14700,10836,338,9018,24241,19190,12145,9351,17540,24493
18.58.34.904874,14582,14344,11597,11032,368,16046,24335,13658,9457,7685,10801,508
18.58.34.941336,15112,11185,10937,11656,24252,18898,24324,8662,7297,14748,9628,572
18.58.34.978511,9986,9838,12641,12211,24291,12228,416,5901,15231,17470,12558,13070
18.58.35.015054,7570,13013,13369,12338,4833,8532,456,15904,16921,11654,14071,24532
18.58.35.051756,13623,13792,14739,10879,338,8667,24294,19855,11481,9655,14890,24487
18.58.35.089034,14908,12623,11285,10599,8083,16503,24352,9584,9500,11799,10778,591
18.58.35.127137,10675,10908,11560,12265,24265,11911,413,4648,13697,14929,10159,490
18.58.35.163655,9776,11436,13089,12558,6519,8181,456,16495,17382,11512,13739,24529
18.58.35.202838,14443,14685,12386,10871,384,14360,24296,20531,10729,9775,14095,24487
18.58.35.238239,14688,14044,11158,10344,13391,16802,24339,9203,9786,9837,11185,495
18.58.35.275025,14184,11109,10516,11657,24113,20984,21015,7889,7023,14163,11249,570
18.58.35.311736,9939,9892,12492,12098,24293,9148,437,10771,15139,17152,13241,24470
18.58.35.349815,10017,13493,13875,11502,333,5627,8580,16249,16731,10601,13503,24530
18.58.35.385720,14125,13768,13650,10706,384,14795,24296,18135,10006,9263,13124,6853
18.58.35.423629,16735,11814,11209,10804,17943,16362,24319,8599,7706,13715,11225,581
18.58.35.461008,10220,10785,11962,12178,24290,8555,445,15655,15572,13458,13827,24526
18.58.35.501128,12774,13607,14586,10970,337,8222,24260,18069,10963,10188,13611,23669
18.58.35.539070,15466,12961,11082,10393,11636,16212,24356,9849,9755,12274,11092,575
18.58.35.575711,12419,10938,10347,12080,24260,15460,481,5148,13164,14963,10020,525
18.58.35.612663,10004,10231,12817,12019,24292,9470,431,11865,15030,16563,12612,13252
18.58.35.647842,8075,12402,13488,12530,9099,8539,454,15432,15830,12321,13553,24517
18.58.35.685155,13716,13753,13652,10839,346,11338,24288,18981,11974,9880,14532,24487
18.58.35.720768,14485,14929,11669,11029,363,15647,24312,13090,9730,8059,11236,509
18.58.35.758589,12995,10913,10506,11867,24251,20007,9419,8666,7639,14038,11224,583
18.58.35.794408,10355,10477,12152,12166,24286,10056,417,10174,15013,17167,13143,24469
18.58.35.831934,7830,13051,13510,12613,8769,8113,428,16478,17417,10433,13337,24518
18.58.35.869963,14497,14610,11678,10901,2981,16625,24336,11715,9710,9387,11262,558
18.58.35.909012,12357,10891,10029,12064,24255,17136,544,4730,13005,14801,10657,517
18.58.35.945714,9913,9741,12846,12137,24292,9823,418,8059,14857,15511,12231,5769
18.58.35.980664,8427,11994,13482,12678,14901,7487,475,15406,14928,14380,13436,24528
18.58.36.017689,13040,13726,14677,10901,348,10677,24298,19159,10838,9801,13077,12528
18.58.36.055906,16509,12382,11138,10550,17967,16626,24343,8082,7547,13045,11308,590
18.58.36.092825,11214,10997,11030,12244,24248,16015,389,4735,13763,14567,10611,490
18.58.36.129404,10019,10413,13334,12099,22871,8185,468,14816,14825,14913,13587,24515
18.58.36.167508,12929,13628,13923,10933,356,12248,24297,20050,11226,9893,13632,16579
18.58.36.206270,16668,11859,11294,10623,19562,16215,24216,8724,7851,12908,11275,588
18.58.36.243235,10810,11026,11216,12249,24264,11946,400,6231,14780,15392,12472,19557
18.58.36.281764,8099,13411,13401,11847,2373,8124,2991,16249,17351,10630,13375,24512
18.58.36.318845,14188,14971,11625,10946,365,15459,24311,14393,9827,9074,11897,4268
18.58.36.356379,16651,11506,11299,10985,22244,18183,23927,8457,7427,14402,11420,564
18.58.36.393892,10529,10046,12621,12123,24292,10842,394,5781,14683,14525,12177,6788
18.58.36.430841,8019,12830,13416,12636,10851,8194,431,15517,14984,12954,13469,24529
18.58.36.468445,13880,13883,12784,10816,377,12793,24293,19339,10349,9746,11864,660
18.58.36.506415,16446,11548,11334,10980,21788,16464,24306,8293,7382,14113,11420,568
18.58.36.543848,10650,10046,12259,12181,24274,8754,424,11201,15067,16837,13239,24485
18.58.36.583090,11335,13785,14655,10956,332,6264,24049,19085,12075,9614,13855,24493
18.58.36.621741,15193,13203,11276,10470,8941,17124,24343,10187,9850,8752,11737,501
18.58.36.657325,15163,11153,11204,11182,23607,18234,23909,7657,7268,13981,11557,570
18.58.36.694461,9948,9610,12807,12179,24291,8582,417,9753,15020,16896,12924,24495
18.58.36.733055,11361,13746,13927,11323,324,3206,17509,16643,14467,9945,13609,24507
18.58.36.769230,14417,14396,12664,10859,377,15437,24299,16651,10104,9404,11895,527
18.58.36.806958,15771,11157,10946,11749,24248,20491,13494,8449,9605,14298,10829,540
18.58.36.845335,10052,9726,13099,12072,24288,9771,417,9162,14919,14861,12580,20591
18.58.36.881718,8462,13397,13322,11797,1178,4442,20566,16189,13441,9989,14106,24492
18.58.36.921023,14319,13408,11334,10635,10425,16405,24343,10695,9976,10734,11323,576
18.58.36.958552,12299,10849,10562,12092,24256,17752,3957,7956,11583,14671,11187,554
18.58.36.994122,10263,9868,12324,12139,24275,11511,409,5845,14327,14520,11500,2610
18.58.37.030469,8240,12774,13509,12641,5138,8293,1864,16174,17292,10929,12862,24513
18.58.37.069080,14229,14220,12493,10916,366,15210,24298,16084,9918,7938,11799,493
18.58.37.107035,15224,11250,10714,11793,24249,20077,3464,7773,10502,14093,10993,557
18.58.37.144674,10159,9718,13002,12076,24285,9137,420,11332,14994,16648,12996,24464
18.58.37.181479,8198,13610,14509,11353,319,3843,21811,16466,12255,10265,14051,24484
18.58.37.220701,14375,13556,11447,11070,5145,16641,24344,8657,8470,13455,11595,576
18.58.37.260343,10287,10038,12365,12227,24273,11130,405,6489,14820,14578,12181,11266
18.58.37.297628,7816,13213,13461,12564,2189,7618,426,16431,15985,12034,13278,24519
18.58.37.333831,13389,13688,13752,10863,341,8383,23658,19833,12245,9939,13899,24486
18.58.37.370988,14401,13141,11396,10951,3245,16848,24334,11524,9783,8213,11586,504
18.58.37.407087,14815,10957,10236,12083,24259,19110,899,7505,12187,14835,11008,503
18.58.37.445536,10157,10806,13206,12093,23305,8009,461,13750,14925,16679,13178,24481
18.58.37.482611,11153,13638,14567,11025,339,4429,20697,16111,13557,10144,13906,24490
18.58.37.520555,14389,14453,11398,11022,645,15947,24309,10446,9902,8997,11682,501
18.58.37.557609,13493,10931,10246,12176,24252,17901,4826,8745,8941,14697,10825,535
18.58.37.595054,10110,10266,13276,12166,24278,8631,443,12361,14819,15836,13254,24493
18.58.37.632949,11922,13744,14064,11211,319,4776,16422,15734,13670,10189,13409,24501
18.58.37.669171,14332,14608,12311,10981,355,15394,24300,13025,9879,8020,11853,482
18.58.37.706371,15859,11665,11381,10837,22011,17032,23876,9104,9128,12844,11395,580
18.58.37.742797,10834,10922,11932,12042,24290,9671,396,10460,14692,15035,12564,23558
18.58.37.781480,8624,13424,14095,11250,318,6147,9803,15807,16653,10362,13227,24513
18.58.37.819232,14257,14627,12524,11031,360,14919,24297,16210,9998,8953,12214,3903
18.58.37.855302,16163,11777,11311,10692,20521,16276,24319,8987,8729,12139,11489,557
18.58.37.891671,12021,10961,10388,12047,24251,19569,870,8179,11810,14736,10861,515
18.58.37.928575,10169,10804,13259,12129,23807,8575,440,12236,14931,16314,12929,24498
18.58.37.965649,10888,13604,14079,11345,320,3896,14826,16189,13899,10533,13316,24513
18.58.38.002148,14407,14878,12446,10958,373,16087,24304,13823,9710,7824,11700,525
18.58.38.040913,13214,10948,10311,12016,24249,17982,497,6879,12419,14761,11125,488
18.58.38.079201,9903,10997,13171,12248,20868,7800,462,14865,14713,15631,13060,24482
18.58.38.116798,13001,13694,12875,10846,377,14049,24296,17680,9991,8089,11923,479
18.58.38.156622,15107,11355,11374,11321,24221,18794,19771,8637,8013,14212,11653,580
18.58.38.192743,10700,10958,11278,12217,24265,12006,389,5284,14513,13417,12019,1222
18.58.38.229257,9828,11162,13382,12364,21884,8353,450,14077,14806,16538,12520,24477
18.58.38.264965,9472,13411,13474,12040,837,6926,7376,15880,16346,10591,13337,24513
18.58.38.302119,14330,14991,12287,11011,370,14768,24294,15131,9879,8331,11697,493
18.58.38.339894,14954,11197,11273,11048,20216,16081,24285,8739,7548,13686,11570,575
18.58.38.376309,10584,9948,12346,12154,24274,12866,383,6296,14352,14740,12296,14676
18.58.38.413920,8072,13248,13390,12070,2074,5428,8921,15922,17127,11211,13088,24500
18.58.38.452338,14339,14910,12300,10939,370,14916,24298,14658,9849,8235,11955,1396
18.58.38.488740,16497,11950,11285,10654,15440,16314,24337,9312,8565,12045,11580,579
18.58.38.525490,11082,11013,11484,12197,24263,12689,390,5732,14615,14561,12389,7002
18.58.38.563077,8590,12398,13408,12508,19474,8129,445,14763,14723,14332,13052,24477
18.58.38.598698,10752,13751,14509,11138,326,4025,16139,15752,15874,10346,13457,24500
18.58.38.636173,14399,15079,11752,11040,423,16571,24320,12217,9824,9148,11482,535
18.58.38.674315,12584,10983,10345,11929,24250,21088,17293,8001,8994,14557,11743,575
18.58.38.710656,10110,9682,12840,12159,24302,7676,464,12473,14932,16780,12925,24484
18.58.38.748231,9855,13438,13678,11376,320,1367,2319,17035,16074,10316,13102,24538
18.58.38.785472,14449,15147,11712,10984,379,16123,24299,18050,9777,8320,11944,491
18.58.38.823159,14993,11011,10910,11680,24012,22924,24329,7007,9512,14496,11639,597
18.58.38.859374,10472,10935,11201,12207,24261,14570,8174,1719,13538,15241,11671,1470
18.58.38.896355,8376,12764,13363,12097,2861,5571,470,16518,17694,12204,13305,24533
18.58.38.933037,12921,13754,14386,10939,337,3954,1700,18264,13629,9445,13961,24515
18.58.38.969914,14440,14838,11503,10899,3325,18236,24368,9382,9482,11541,11332,603
18.58.39.007989,11987,10915,10726,12147,24260,18293,22966,5793,12533,15069,10920,489
18.58.39.045482,9901,11447,13379,12061,22741,7213,497,14422,15046,15790,13169,24506
18.58.39.082028,11422,13727,13868,11255,323,2906,628,16409,15469,9723,13938,24513
18.58.39.119466,14395,14270,11373,10808,15956,17271,24366,8868,8424,13010,11584,591
18.58.39.159337,10478,10580,11589,12247,24263,13187,399,4862,14225,14864,11877,7426
18.58.39.196780,7992,12719,13480,12644,8792,7477,471,16321,17415,11145,13186,24531
18.58.39.234462,14105,14043,13110,10806,369,12009,24225,20275,11014,10013,13308,20237
18.58.39.271138,15755,12148,11239,10514,12793,17229,24364,8614,9620,10959,11515,597
18.58.39.308230,11439,10960,10556,12171,24258,14338,409,3555,14009,15000,11828,544
18.58.39.345243,10113,10878,13303,12262,21673,7166,497,14070,14964,15206,13130,24490
18.58.39.382183,11938,13696,13899,11256,336,2602,5297,16879,15816,10314,13118,24531
18.58.39.418160,14318,15042,12554,10890,378,15789,24303,13861,9666,7966,12097,5940
18.58.39.455099,16581,11517,11260,10973,21549,17627,24348,8323,9180,13658,11618,597
18.58.39.492124,10800,10969,11665,12197,24283,13391,404,3571,14341,15064,11968,7413
18.58.39.529873,7967,13062,13483,12408,8636,7309,471,16661,17478,11769,13134,24533
18.58.39.567701,14177,14847,12603,10790,367,13816,24299,19307,10319,10155,12626,7722
18.58.39.604886,16543,12155,11227,10541,17276,17475,24360,8735,9474,11720,11351,596
18.58.39.641582,11204,11024,11564,12222,24303,9399,432,6391,14685,15761,12453,19539
18.58.39.680654,8686,13306,13327,12315,5957,7518,457,16310,17427,10796,13064,24524
18.58.39.717710,14205,14314,12945,10830,382,14913,24301,14829,9627,7664,11819,1611
18.58.39.755164,16379,11608,11262,10543,20227,16781,24350,8374,7626,13716,11556,591
18.58.39.791796,10959,11001,11029,12166,24266,12844,405,5807,14236,14799,12298,8736
18.58.39.829940,8040,12912,13415,12361,6332,7738,469,15845,15313,14639,13031,24524
18.58.39.866525,13375,13684,14310,10873,345,9982,24294,20339,10930,9730,12354,7097
18.58.39.904812,16457,11709,11309,11014,23216,19122,24321,8137,7373,14139,11672,598
18.58.39.941347,11328,10949,10561,12094,24266,15888,1613,3966,13649,14525,11937,937
18.58.39.979138,8505,12461,13474,12588,21277,7604,479,15448,14973,14171,13023,24514
18.58.40.015599,12486,13754,14159,10840,344,10926,23557,20577,11403,9735,13074,14857
18.58.40.054267,16095,11995,11271,10696,17098,17016,24348,8082,7287,12387,11698,590
18.58.40.091118,11540,10953,10265,12097,24253,17938,14632,5929,12844,14758,11335,559
18.58.40.126588,10085,9830,12711,12082,24296,7990,450,11044,15094,16919,12989,24481
18.58.40.165055,11758,13744,14232,11065,328,3587,1031,16870,16511,9991,13140,24516
18.58.40.201928,14410,15128,12190,11016,381,16320,24325,12697,9813,8464,11740,511
18.58.40.239725,13723,10951,10839,11845,24249,20873,22463,7964,11971,14928,11306,555
18.58.40.277303,10123,10310,13133,12060,24288,8092,480,12598,14929,15531,13088,24490
18.58.40.314643,11025,13763,14369,11319,322,3716,631,16926,17269,10426,12927,24523
18.58.40.351674,14327,15092,12113,10848,385,14820,24301,20133,10215,9240,12555,9850
18.58.40.387917,16491,11954,11496,10529,15548,16848,24360,10828,9824,10593,11544,583
18.58.40.423763,12384,10926,10250,12045,24257,16409,969,5204,13265,14645,11335,495
18.58.40.461106,10176,10210,13051,12167,21407,7915,479,13729,14982,15491,13030,24501
18.58.40.497878,10992,13601,13727,11422,325,3429,1310,16492,17041,10948,12959,24523
18.58.40.533857,14089,13804,12698,10873,383,12837,24294,20059,10440,9537,12305,3140
18.58.40.571599,16283,11682,11300,11379,22606,18560,24320,8269,7436,13687,11412,575
18.58.40.609525,10169,9898,12221,12182,24301,10222,413,8280,14764,14612,11994,4284
18.58.40.645310,9081,11682,13348,12277,17416,7929,482,13808,14975,16632,13170,24478
18.58.40.680719,9964,13523,13396,11619,373,4357,623,16280,14927,9848,14350,24501
18.58.40.718990,14325,14864,11689,11008,580,15946,24299,16234,9740,8634,11745,740
18.58.40.755285,15584,11529,11318,11451,24250,20637,24275,8454,8957,14399,11175,562
18.58.40.793424,10101,9754,12957,12130,24299,8928,448,11491,14990,16451,13291,24493
18.58.40.831044,10840,13560,13902,11228,333,4771,13079,15970,15887,10618,13386,24512
18.58.40.868635,14316,14351,11717,11030,368,16183,24319,12264,9687,7987,11593,492
18.58.40.905831,14231,11058,10768,11866,24240,20799,23233,8686,9225,14587,11225,546
18.58.40.943543,10158,10420,13251,12149,23869,8088,476,12010,14965,16938,12683,20124
18.58.40.979424,8114,13060,13414,12542,5957,8110,472,15043,14622,14164,13098,24509
18.58.41.014663,11797,13728,13911,11510,322,4775,6950,15492,13895,9743,13583,24498
18.58.41.051466,14298,14872,11617,11009,2535,16686,24338,9976,9728,11367,11659,565
18.58.41.089825,12776,10982,10630,12015,24251,18410,10636,9196,10799,14281,11633,539
18.58.41.127050,10278,9982,12964,11939,24292,9641,419,10577,14846,16599,12488,16752
18.58.41.162845,8302,13341,13338,11660,546,4589,8232,15501,14439,10415,12950,24515
18.58.41.201505,14131,14491,11739,11051,6152,16554,24336,11299,9937,9667,11808,567
18.58.41.239904,12505,10987,10498,11767,24248,19105,3924,8438,11061,14556,10802,533
18.58.41.276697,10383,9752,12973,12105,24229,8518,426,11320,14632,16115,12703,24484
18.58.41.314198,11153,13619,14041,11244,344,3386,15767,15172,14452,9663,12889,24499
18.58.41.351355,14235,15012,11806,11119,950,16068,24302,13025,10010,8503,11998,488
18.58.41.387892,16036,11381,11267,11609,23895,21069,15584,9347,11632,14411,11911,528
18.58.41.426468,10245,9877,12878,12147,24296,8965,425,10199,14772,16290,12721,24471
18.58.41.463903,10526,13500,13456,11638,1728,4698,9335,15209,15754,10008,12731,24509
18.58.41.501211,14231,15023,12211,10911,359,16057,24308,12839,9931,8962,11860,506
18.58.41.538750,14387,11149,11285,11854,23963,18982,20577,9297,8005,14212,11848,564
18.58.41.575205,10411,10280,12031,12180,24289,10154,417,11286,14885,15385,12564,13913
18.58.41.612445,8177,12675,13411,12327,2779,6256,423,15646,16923,11763,13083,24522
18.58.41.649726,13922,13642,13662,10927,346,7359,21941,16332,13612,10120,13064,24519
18.58.41.684077,14280,15007,12194,10976,372,14898,24302,16564,10168,10171,12081,5458
18.58.41.720697,16374,11770,11298,10823,21082,16993,24310,9094,8297,13825,12077,573
18.58.41.758654,10321,9704,12721,12083,24281,10521,399,7805,14527,15732,12666,24329
18.58.41.796388,8880,13318,13392,12378,3444,7560,779,15376,16000,11595,12844,24524
18.58.41.833071,13997,13717,13585,10854,349,12372,24294,18202,11012,10260,12879,23781
18.58.41.869786,15291,12425,11250,10367,16662,16336,24339,10092,8106,13225,11977,582
18.58.41.908442,10277,10220,12044,12220,24276,11791,399,6621,14395,14323,12210,2873
18.58.41.945048,8268,12722,13473,12643,3059,7677,3482,15250,17265,10532,12668,24513
18.58.41.983732,14438,14989,12127,11036,375,13773,24283,13394,9602,8968,12088,711
18.58.42.021251,16177,11279,10673,11859,24240,18876,17259,9462,8928,14528,12056,559
18.58.42.059080,10055,9692,13164,12293,21961,8742,450,13845,14706,15127,12554,24490
18.58.42.097802,12129,13629,14522,11083,328,6996,21214,14988,12900,10043,12812,24486
18.58.42.134466,14448,14885,12041,10916,358,15276,24299,11546,9842,8757,12001,506
18.58.42.172392,13340,11013,10290,12079,24257,16502,623,8197,13091,14394,11971,496
18.58.42.210093,10012,10432,13157,12252,19534,8244,446,12840,14698,14477,12463,24492
18.58.42.247913,12508,13582,14060,11115,335,6577,21771,15385,12467,10353,12718,24481
18.58.42.284603,14395,14780,11731,11069,3152,15621,24322,12511,9815,8356,11980,1687
18.58.42.320847,16404,11685,11453,11046,19756,15364,23990,11401,8782,13154,12017,573
18.58.42.357627,10744,10256,12303,12093,24281,10490,408,10955,14852,16168,12648,20824
18.58.42.395918,8139,13473,13379,11954,5365,8763,3933,14859,16761,11329,12551,24513
18.58.42.432636,14244,13693,12976,10898,17501,15472,23715,10012,9076,13257,11920,572
18.58.42.473772,10683,11060,11108,12128,24010,13401,376,7897,12812,14306,11842,512
18.58.42.509845,10111,10965,13349,12235,18612,9109,429,14524,15023,12437,12699,24513
18.58.42.547956,13128,13621,14202,10908,346,10471,23782,16070,11915,10376,12488,24481
18.58.42.585335,14702,13165,11403,10726,11957,15572,24320,10101,9971,11483,12194,496
18.58.42.622169,14151,11095,10602,11924,24254,15898,2253,9122,12473,14155,12442,505
18.58.42.659476,9186,9951,13064,12062,24266,9232,418,11456,14813,14937,12618,20578
18.58.42.695281,5655,12706,13421,12255,6998,8607,3608,14985,16855,11556,12512,24515
18.58.42.732618,15206,14096,12138,11026,367,15299,24304,12848,10034,8807,12094,552
18.58.42.772911,12113,11029,10510,12170,24251,17162,704,8830,12093,14358,12155,523
18.58.42.809701,8433,9946,13086,12168,24249,8625,447,13280,14780,16103,12647,21899
18.58.42.845618,4874,13031,13691,11881,1305,6412,4781,15037,16913,11158,12523,24526
18.58.42.882340,14751,13786,12744,10879,380,11851,24296,16979,11347,10493,12041,22764
18.58.42.919307,17467,12671,11027,10653,2542,15614,24334,10195,10212,10643,12270,567
18.58.42.955671,13248,10987,10330,11865,24243,17517,2085,9506,12033,14515,12086,493
18.58.42.993235,8860,11108,13212,12445,20863,9260,436,13707,14605,13202,12766,24500
18.58.43.030609,12070,13731,14517,11151,320,6214,18403,14651,13092,10449,12695,24514
18.58.43.066768,15275,14867,11927,11068,1331,15875,24313,11513,10242,9299,11799,502
18.58.43.104830,15390,11228,10997,11986,24247,17816,872,7627,13628,14079,12440,501
18.58.43.142783,9229,10572,12628,12089,20967,9583,432,13755,14740,13821,12431,24476
18.58.43.180301,11239,13640,14052,11429,327,6322,18287,14716,14193,10182,12478,24505
18.58.43.216941,15095,14831,12068,11046,424,14772,24295,14365,10103,10286,12203,4877
18.58.43.252801,17393,12550,11207,10636,6452,15415,24335,11197,10286,11120,12217,568
18.58.43.290357,10130,11121,10748,12155,24254,16235,3899,9614,10731,14418,12207,503
18.58.43.326528,9370,11702,13140,12324,16842,9302,429,14160,14509,13949,12602,24502
18.58.43.364307,12720,13520,13935,10950,352,12322,24296,16580,10692,10423,12158,17354
18.58.43.402422,16920,12701,11065,10796,10458,15357,24322,9828,9744,12852,12189,573
18.58.43.440293,10480,11059,10615,12142,24257,15560,1041,9480,12458,14186,12084,487
18.58.43.476980,7179,11579,12841,12389,22211,9330,430,13415,14457,14299,12601,24498
18.58.43.513784,11108,13701,14313,11059,328,6467,15237,14689,16281,11086,12535,24516
18.58.43.548935,16606,13583,13438,10932,335,10344,24129,16862,11770,10470,12619,24484
18.58.43.584976,17344,12923,11469,10524,13901,15360,24331,10145,7891,13351,12158,574
18.58.43.622520,12255,11103,11653,12243,24249,13131,385,8523,13356,14029,12218,513
18.58.43.659531,5606,10475,12987,12124,24264,9259,417,12597,14676,15787,12637,24025
18.58.43.695748,1429,13364,13435,11702,739,8013,7892,14872,16437,11822,12464,24521
18.58.43.730718,12367,13583,14447,10954,335,9671,22033,15246,13268,10665,12497,24513
18.58.43.766401,18655,14392,12159,10965,375,14340,24198,14512,10082,9815,12156,1829
18.58.43.803381,24300,11456,11405,11120,23938,17406,14376,9688,8374,13445,12280,580
18.58.43.840662,7768,10956,12536,12239,24279,11578,378,8093,14166,13671,12570,5475
18.58.43.877927,1007,12700,13246,12539,3016,9757,3280,14777,16552,11318,12527,24519
18.58.43.914808,15023,13580,13273,10886,369,13142,24299,15842,10554,10146,12123,15640
18.58.43.952123,18896,12665,11401,10646,11311,15344,24332,11098,10143,10539,12194,498
18.58.43.988288,14462,11069,10298,12110,24241,17638,2559,9584,11562,14822,12457,515
18.58.44.025710,8404,10742,12689,12195,19108,9179,437,13443,14606,15078,11725,24499
18.58.44.063596,12371,13557,14410,11075,336,7414,17595,14633,15408,10330,12397,24496
18.58.44.099716,15804,14702,12078,10872,358,13971,24071,15721,10716,10881,12273,19884
18.58.44.135501,17856,12294,11460,10701,17799,15135,24202,10240,9172,13297,12156,567
18.58.44.172801,10490,11129,11098,12212,24247,13782,380,8049,14056,13876,12498,1241
18.58.44.210486,6432,12170,13441,12629,12770,9703,421,14267,14999,12002,12023,24520
18.58.44.248373,14887,13502,13389,10900,343,12230,24294,16475,11886,10725,12330,24479
18.58.44.283934,15992,14428,11744,11069,356,14535,23962,13045,10094,13452,12251,581
18.58.44.323655,8747,11025,11851,12192,24253,12157,388,9102,14340,14070,12602,20398
18.58.44.361134,4000,12677,13484,12532,9244,9502,1144,14562,16231,11842,12469,24516
18.58.44.397741,14563,13523,13936,10947,334,10745,24167,16601,11751,10632,12364,24466
18.58.44.434479,16516,14000,11417,10696,11571,15348,24332,10843,10307,12223,12269,570
18.58.44.472578,10586,11069,11114,12159,24258,12953,415,8128,12795,14042,12367,508
18.58.44.508730,7870,10590,13090,12078,24272,9236,418,12949,14619,14895,12539,24480
18.58.44.546042,8919,13573,13953,11501,324,7131,7551,14682,16505,11145,12495,24511
18.58.44.582573,16309,14974,12179,10973,371,14628,24030,13684,10231,9676,12121,484
18.58.44.620396,18194,11329,11242,11416,23363,16528,15969,9940,8124,13255,12285,575
18.58.44.656106,10034,11034,11307,12160,24245,14752,413,8114,13374,13933,12524,478
18.58.44.693090,7643,11534,12958,12186,24262,9094,431,13407,14632,14354,12559,24501
18.58.44.730197,12559,13457,13738,10747,353,12422,24264,16454,12043,10854,12408,24502
18.58.44.766153,16169,14870,12249,11077,359,15176,24219,12049,10242,9605,12197,487
18.58.44.803903,17241,11135,10698,11858,24250,18163,9889,10024,9726,13642,12332,533
18.58.44.841259,7342,9889,12702,12089,24280,9807,698,10576,14489,14308,12650,2533
18.58.44.876995,3721,12730,13224,12297,5508,9263,2199,14476,15338,12441,12633,24520
18.58.44.914543,15176,13534,13336,10901,364,13253,23691,15884,10451,10469,12158,2949
18.58.44.952761,22426,12006,11272,10890,18998,15403,22119,10281,8642,13202,11969,584
18.58.44.989114,10620,11092,10663,12183,24258,12479,386,7929,13938,13801,12517,466
18.58.45.026143,5776,11974,13405,12544,18252,9205,6924,14527,14668,12666,12362,24522
18.58.45.063373,11937,13580,14031,10974,334,7646,20086,14584,14565,11022,12369,24504
18.58.45.099763,18179,14777,11755,11000,365,14442,22043,13726,10207,9688,12171,493
18.58.45.137328,18366,11134,10578,11903,24251,17343,4022,9731,12526,13979,12052,500
18.58.45.175694,5965,10496,13208,12060,24265,9424,427,13066,14575,14542,12594,24466
18.58.45.211691,2196,13437,13770,11434,318,6576,16190,14464,15576,11196,12375,24511
18.58.45.248617,17528,13733,12821,10924,375,14378,23402,14348,10194,9892,12188,483
18.58.45.286170,23709,11881,11393,11543,24153,16918,15403,9537,8376,13354,12396,579
18.58.45.323427,6577,9811,12700,12078,24269,10918,629,11159,14556,14348,12599,11055
18.58.45.360255,1271,12217,13439,12571,4668,8917,7766,14588,16409,11260,12395,24515
18.58.45.398805,17656,14786,12083,10931,380,14192,22936,16086,10823,10809,12203,24485
18.58.45.434387,18522,12857,11253,10576,12266,15238,22835,9902,8074,13330,12296,561
18.58.45.473752,6981,9866,12936,12226,24274,9959,402,10888,14616,14831,12441,24464
18.58.45.511813,4658,13636,14293,11319,335,6558,19236,14337,13581,10642,12254,24482
18.58.45.550190,17591,14366,11936,10891,367,15192,23415,13195,10228,9728,12144,991
18.58.45.586096,22650,11496,11136,10850,19385,15817,20012,10075,8319,13324,12348,569
18.58.45.622990,8488,11145,12346,12184,24281,10243,843,8941,14305,14331,12612,21352
18.58.45.660576,1642,13038,13560,12525,8038,9455,4140,14623,16032,12181,12478,24518
18.58.45.697635,15416,13583,13587,10916,374,13835,23186,13245,10144,9561,12270,489
18.58.45.736846,18393,11179,10704,12211,24252,13666,410,8265,13777,13780,12427,481
18.58.45.775818,7180,11304,13431,12499,17609,9303,430,13644,14481,14459,12666,24509
18.58.45.813056,12388,13575,14358,11073,331,8687,21745,15747,11794,10918,12266,24489
18.58.45.850502,17401,13737,11526,10997,372,15072,24004,11785,10234,10997,12237,489
18.58.45.886824,18302,11075,10864,11873,24238,17462,3077,10165,10699,13790,12378,533
18.58.45.924446,7185,9831,12468,12117,24274,9757,1008,12343,14596,15092,12582,24482
18.58.45.962619,10908,13611,14486,11044,330,6741,18965,14433,13757,10817,12358,24493
18.58.45.999282,17375,14738,11826,11062,359,14737,23094,13969,10109,9669,11831,486
18.58.46.036766,17703,11146,10793,11944,24242,17841,6496,10211,11231,13805,12400,491
18.58.46.075288,7109,12716,13360,12395,9470,9458,445,14371,14989,12980,12456,24519
18.58.46.113592,14306,13560,13467,10860,350,12493,22824,16536,11010,10881,12134,22196
18.58.46.151398,20280,12148,11403,10571,15021,15139,23256,10188,8896,13136,12279,568
18.58.46.188594,10543,11185,10864,12034,24248,14710,1487,8400,13299,13789,12496,554
18.58.46.225925,5620,12169,13241,12565,18372,9354,416,14293,14385,12620,12230,24515
18.58.46.263434,14075,13659,13173,10998,342,11927,23116,15486,11971,11085,12318,22462
18.58.46.301091,19203,12103,11091,11084,21116,17496,15939,9774,8223,13380,12406,562
18.58.46.339531,8349,11055,11267,12246,24253,13016,1174,8116,13199,13805,12649,503
18.58.46.374651,7353,9992,13036,12123,24044,9467,435,13369,14510,14972,12705,24426
18.58.46.410859,3132,12999,14097,11108,328,7530,19798,13964,14977,11144,12420,24512
18.58.46.447950,16275,14414,12331,10899,370,12408,22867,15690,10889,11003,12377,24481
18.58.46.483765,17546,13585,11304,10785,1434,15288,24325,11411,10381,11117,12172,562
18.58.46.521522,10867,11089,10432,12177,24243,13589,1163,8332,13634,13665,12794,474
18.58.46.559123,5378,11612,13441,12603,11840,9425,430,13571,14424,14677,12561,24464
18.58.46.594731,5248,13409,13657,11270,323,7295,19783,14958,12767,10862,12352,24483
18.58.46.633091,17610,13696,11623,10939,2587,15185,24320,11795,10247,9863,12237,547
18.58.46.673332,6937,9840,13116,12052,24276,11080,1510,10465,14421,13707,12626,1884
18.58.46.709615,2251,12194,13406,12605,11923,9418,427,13797,14406,13508,12528,24506
18.58.46.745687,11522,13593,14163,11336,325,6756,15496,14523,14439,11104,12150,24511
18.58.46.781398,17230,14714,12087,11019,370,13969,22603,13978,10101,10122,12127,484
18.58.46.819432,20706,11376,11376,10841,23757,15781,15795,10099,8872,13028,12350,578
18.58.46.855124,10036,11111,11248,12206,24245,13544,2215,8769,13151,13822,12552,497
18.58.46.891394,6836,10998,13082,11973,20663,9492,428,13790,14432,13774,12456,24481
18.58.46.928337,7756,13048,14035,11135,322,7653,20413,15124,12256,10746,12228,24482
18.58.46.967093,18045,12575,11429,10382,11992,15299,24336,10829,10347,10317,12279,518
18.58.47.003870,14555,11335,10138,11940,24240,16978,4786,9622,11975,13760,12353,537
18.58.47.040184,7432,9528,12636,12237,24257,11691,1730,8783,13983,13372,12564,12377
18.58.47.076658,1954,13020,13391,12044,3618,9591,4906,14535,16385,11171,11794,24506
18.58.47.114671,16778,14601,12580,11041,373,13708,22254,15029,10610,11118,11832,22210
18.58.47.150323,17269,13481,11476,10763,1902,15198,24320,11504,10290,10024,12596,500
18.58.47.186932,14560,11204,10717,11936,24241,17270,4701,9875,11844,13729,12364,520
18.58.47.223845,7221,10058,12845,12084,24266,9604,437,13355,14465,14680,12549,24492
18.58.47.262342,12458,13506,14238,11037,343,7697,18646,14743,12660,10877,12257,24486
18.58.47.299423,17140,14425,11841,11018,360,14771,23183,12751,10143,9722,12227,490
18.58.47.336279,17562,11142,10446,11892,24250,16291,3990,9656,10577,13656,12426,540
18.58.47.373388,6982,9867,12655,12117,24267,11731,670,8872,14203,13804,12675,13598
18.58.47.409991,1608,12779,13435,12653,9636,9536,418,14176,15054,12098,12288,24506
18.58.47.445841,12779,13628,14434,11117,326,7826,19016,14609,13784,10906,12233,24499
18.58.47.481925,17191,14843,12142,10960,365,14431,21837,12684,10199,9809,12123,489
18.58.47.518979,20925,11308,11361,11060,23323,16568,16052,10097,8678,13700,12646,554
18.58.47.556469,7316,10036,12711,12090,24265,9892,1631,12141,14612,14197,12576,20615
18.58.47.593816,3125,13255,13386,11825,635,7610,12952,14694,15179,11241,11990,24506
18.58.47.630850,16532,13727,13162,10966,358,13276,21781,14732,10350,9960,12125,4676
18.58.47.667700,21805,11793,11360,10939,18856,15272,21442,10226,8335,12826,12409,576
18.58.47.704950,9880,11023,10415,12009,24242,16248,4158,9296,11503,13548,12538,530
18.58.47.741064,7067,10454,13452,12089,24272,9956,1154,12504,14502,14620,12454,24492
18.58.47.777985,8140,13517,14415,11439,325,6866,15577,14361,13409,11014,12214,24503
18.58.47.814588,16915,13965,12880,10976,373,14585,22778,13046,10237,10368,12130,878
18.58.47.851255,21940,12223,10828,10819,21287,15731,15724,9657,8345,13616,12434,575
18.58.47.888652,8854,11134,10381,12070,24251,15536,3226,10052,12420,13707,12555,488
18.58.47.925062,6623,11620,13741,12492,18839,9528,498,13905,14434,13279,12442,24509
18.58.47.962105,12244,13614,14961,11248,323,7516,19133,14636,12510,10862,12323,24483
18.58.47.999556,17056,13171,10893,10514,13437,15134,24330,10457,9190,13132,12314,578
18.58.48.038823,8226,10574,11809,12161,24255,14184,1945,8748,13137,13732,12542,497
18.58.48.074466,7065,10533,13484,12307,19622,9564,1033,14333,15272,12319,12166,24519
18.58.48.112629,13958,13644,14633,10957,330,10847,22928,16522,11247,10859,12233,24485
18.58.48.149215,16820,13658,11448,10937,772,15301,24329,11173,10080,11778,12933,529
18.58.48.187259,11834,11008,9936,12136,24244,14926,1682,9743,12318,13839,12777,485
18.58.48.224694,7346,11746,13606,12640,7507,9059,11643,14717,16364,11615,12182,24518
18.58.48.262790,14563,13526,14249,10951,332,8011,21201,14859,12458,10821,11926,24484
18.58.48.298810,16733,14813,11818,10992,363,15029,23337,13211,10049,9601,12178,744
18.58.48.335028,20700,11355,11111,11078,23363,17348,13985,9894,8284,13571,12523,570
18.58.48.371845,8892,10915,11642,12277,24247,15367,1002,7849,13455,13786,12818,722
18.58.48.408356,6946,11949,13719,12247,23514,8930,426,14210,14422,13419,12305,24515
18.58.48.445731,13566,13673,14863,11002,332,9644,22140,15891,11840,11165,11972,20673
18.58.48.483487,17822,12494,11250,11313,22955,17710,11854,9863,9354,13886,12461,554
18.58.48.522401,8708,10338,11805,12196,24266,12254,987,8484,14294,13834,12757,10582
18.58.48.559053,4781,12637,13547,12602,6069,9014,5816,14608,16299,11689,12195,24506
18.58.48.597307,15832,14047,13167,10840,365,12708,23021,16629,10706,10708,12121,504
18.58.48.634428,19756,11992,11130,10526,15229,15488,23742,10393,10087,11914,12242,560
18.58.48.670444,11959,11058,10167,12184,24240,11857,1213,8851,14389,14560,12744,22652
18.58.48.709738,5256,13158,13575,12582,11675,8988,418,14499,15355,12084,12286,24513
18.58.48.745886,14345,13610,14197,10940,342,6962,19933,14695,13914,10942,12159,24488
18.58.48.781925,15851,14817,11611,10968,3210,15639,24336,10557,10241,11241,12451,561
18.58.48.819986,12796,11125,9994,12060,24241,16717,2765,8674,12922,13647,12729,501
18.58.48.857433,8607,12266,13540,12623,16171,8965,419,14555,14470,13314,12302,24494
18.58.48.895067,12525,13616,14581,10949,344,8763,22715,15560,12494,10923,11916,24483
18.58.48.932017,15371,13789,11517,11065,401,15480,24322,9985,10379,10660,12376,507
18.58.48.969668,13421,11014,9976,11897,24255,18709,8341,9659,9283,13573,12630,544
18.58.49.005640,8766,10540,12244,12034,24276,10562,715,10264,14586,14715,12597,24455
18.58.49.043590,7152,13349,13538,11766,659,7324,14146,14674,16197,11152,11906,24507
18.58.49.080171,15498,13709,12791,10888,372,14248,23469,13850,10097,9859,12175,479
18.58.49.118460,17614,11509,11078,11083,23082,17676,13115,10787,8190,13210,12350,555
18.58.49.155770,8954,9766,13081,12065,24269,10081,1011,11508,14538,15173,12584,18258
18.58.49.192888,5795,13182,13452,11633,1274,7523,14226,14854,15411,11110,12131,24490
18.58.49.231737,15623,14270,11483,10928,3834,15461,24314,11505,10236,10812,12315,521
18.58.49.269355,13966,11022,10055,12025,24239,13706,986,7441,13375,13861,12690,492
18.58.49.307585,8964,11796,13560,12591,5882,8645,10194,14592,16272,11534,12022,24513
18.58.49.346772,15243,13538,12137,11007,360,13860,23087,16447,10547,10623,11916,478
18.58.49.385008,17267,11398,11020,11326,22470,15774,22335,9755,8432,13383,12466,572
18.58.49.421092,10133,11149,10994,12154,24243,14722,379,7666,13258,13689,12711,1272
18.58.49.458343,6962,11998,13547,12278,18272,9211,430,13518,14324,12980,12306,24495
18.58.49.494210,10676,13616,13817,11570,311,6025,16873,14735,13520,10894,11971,24485
18.58.49.531492,15360,14467,11647,11109,1021,15614,24326,12121,10249,9827,12355,500
18.58.49.568702,15769,11320,11192,11367,24232,17256,11860,9550,8916,13766,12619,550
18.58.49.605147,9168,10155,12645,12163,24268,10599,606,8665,14140,13793,12894,1172
18.58.49.641096,8476,11182,13495,12269,16964,9042,435,13729,14548,15193,12309,24476
18.58.49.677644,11345,13597,13926,11345,329,7344,21282,16074,12232,10840,11680,24480
18.58.49.715274,15345,13644,11458,10765,6313,15638,24333,10898,10199,10182,12269,490
18.58.49.751673,16524,11458,11082,11316,23031,16712,18613,9442,8400,13169,12446,569
18.58.49.787255,10641,11119,10555,12135,24251,13067,382,9358,14020,13772,12899,468
18.58.49.824528,8183,12320,13437,12605,12275,9139,1419,14851,15162,12187,12205,24515
18.58.49.863100,14921,14269,13041,10892,351,11883,22938,17019,11529,11023,11864,24477
18.58.49.899253,15514,13348,11275,10673,10524,15496,24330,10689,10429,10729,12362,493
18.58.49.935500,14633,10984,9967,12029,24236,17925,4681,9951,11051,13827,12777,505
18.58.49.973845,9212,10821,13273,11997,24258,9515,521,13242,14388,13916,11991,24494
18.58.50.011368,12889,13600,14541,11057,322,7904,20980,15419,13360,10840,11935,24494
18.58.50.048143,15271,14777,11518,11048,1109,15304,23330,12708,10364,10073,12207,483
18.58.50.084608,17336,11090,10404,11778,24219,17989,13799,10019,8720,13323,12549,575
18.58.50.120571,10727,11039,10489,12109,24239,17003,3710,8866,12885,13775,12697,503
18.58.50.156545,9360,9922,13192,12056,24268,9654,720,12834,14506,15067,12503,24463
18.58.50.192776,6836,13266,13480,11813,1847,8559,7044,14831,16187,11567,12140,24507
18.58.50.229872,15038,13835,12977,10953,355,13696,23005,15013,10314,10033,12253,483
18.58.50.268117,16647,11157,10836,11444,22767,17059,13871,9687,8834,13514,12700,565
18.58.50.304590,9661,10736,11696,12188,24247,13589,419,7349,13869,13671,12911,1369
18.58.50.341080,7779,12229,13512,12402,14780,9132,421,14504,14597,13384,12134,24489
18.58.50.377688,12143,13624,14649,11242,319,7221,20045,14643,12546,10874,11751,24485
18.58.50.415816,15758,12372,11257,11277,22372,16099,15945,9661,8151,13337,12565,559
18.58.50.454427,9776,10563,11882,12149,24279,11234,1407,7440,14028,14339,12589,13288
18.58.50.492076,6213,13114,13557,12232,5722,9350,2271,14767,16004,11580,12198,24513
18.58.50.528753,14008,13620,13466,10710,347,12334,22701,16495,11323,10705,11829,24481
18.58.50.565575,15224,12862,11350,10531,11613,15258,24325,10637,10445,10601,12336,515
18.58.50.602614,12696,11007,10127,12042,24241,16335,4828,9676,11982,14035,12724,523
18.58.50.639490,9285,10577,13208,12040,23737,9810,732,13212,14408,14864,12373,24475
18.58.50.676582,9403,13419,13303,11641,1643,8254,13527,14775,16370,11399,12141,24510
18.58.50.712443,14725,13513,13390,10918,346,12352,22849,16465,10918,11009,11873,9414
18.58.50.750036,17919,11850,11221,10754,18274,15428,15136,10075,9254,12646,12522,564
18.58.50.786957,10492,11146,10982,12069,24248,13137,1351,8011,14020,13852,12869,489
18.58.50.823910,8841,12251,13583,12617,11002,9424,1173,14664,14435,13715,12448,24502
18.58.50.860854,12148,13666,14631,11068,322,7603,20979,15191,12487,11026,11989,24486
18.58.50.897614,15231,14762,11664,11105,428,15179,23764,11713,10424,10730,12416,492
18.58.50.935211,14307,11097,10548,11981,24241,15620,3268,8922,12582,13713,12920,481
18.58.50.973310,9287,10411,13343,12381,19989,9157,426,13448,14482,14572,12381,24466
18.58.51.009444,8046,13491,13515,11461,320,6266,18795,14803,13725,11020,11987,24516
18.58.51.046859,15270,14579,12791,10849,351,11487,22971,17638,10973,11149,11801,21255
18.58.51.082370,15963,13390,11453,10676,5067,15506,24326,10492,10319,9613,12331,546
18.58.51.118907,13021,11043,10102,12062,24247,17950,5543,9866,10805,13832,12776,519
18.58.51.156348,9352,10247,13161,11990,24266,9952,1641,10897,14495,15339,12484,23660
18.58.51.192006,6574,13262,13445,12363,4295,8950,9183,14900,16250,11704,12090,24510
18.58.51.229392,14832,14011,12793,11000,364,13125,22538,17217,10848,11072,11850,24460
18.58.51.265315,15399,12634,11257,10615,12759,15294,23683,9948,9284,12746,12492,569
18.58.51.303672,10432,11067,10342,12057,24242,14305,2150,8962,11583,14101,12899,494
18.58.51.340066,9374,10673,13293,12070,19304,9401,427,13211,14406,14583,12432,24481
18.58.51.376631,10379,13567,14420,11285,326,7244,20377,14521,14483,11030,12104,24495
18.58.51.414033,15101,14768,11906,11064,353,14685,22062,15291,10483,10955,12018,20710
18.58.51.449384,17204,12565,10988,10606,11834,15295,24331,10519,9861,12486,12614,568
18.58.51.486401,11031,11059,10510,12161,24253,17177,1629,8549,12267,13821,12990,486
18.58.51.523529,9202,11260,13352,12007,20313,9358,422,12802,14517,15119,12443,12630
18.58.51.558372,6498,13057,13588,11943,937,7946,17986,14835,16094,11479,12154,24511
18.58.51.595008,14051,13566,14147,10884,337,9291,21925,16775,11711,10946,11799,24487
18.58.51.631248,15129,14397,11812,11027,1762,15188,23931,12798,10203,9396,12111,804
18.58.51.666907,17877,11788,11234,10757,20373,15332,22229,9705,9230,12619,12623,575
18.58.51.702947,11176,11079,11532,12200,24252,12621,746,7619,14061,13726,12807,11239
18.58.51.740988,7095,12642,13340,12589,8270,9214,806,15223,15643,12001,12137,24517
18.58.51.778945,14609,14192,12720,10929,363,14307,22075,14238,10083,9135,12274,487
18.58.51.818023,14577,11096,10656,11673,24162,17106,15536,9806,8668,14173,12681,556
18.58.51.854196,9754,10702,11618,12092,24247,13607,2022,8042,12989,13526,12998,487
18.58.51.889438,9450,10959,13468,12545,13113,9325,416,14150,14825,12571,12131,24508
18.58.51.928664,14468,13539,13829,10938,336,8835,20852,16445,12343,10543,11775,14124
18.58.51.965787,16823,12625,11281,10542,9337,15337,24325,12308,10359,9797,12450,537
18.58.52.002376,12134,11087,10498,12114,24250,15165,2774,8138,13166,14418,12916,3366
18.58.52.040543,8009,12471,13411,12620,15186,9314,419,14399,14339,14205,12369,24486
18.58.52.076840,11814,13560,14621,11039,333,7261,19674,14611,13463,10693,11887,24483
18.58.52.113784,14995,14817,12011,11070,356,14941,23396,12194,10295,9578,12308,489
18.58.52.151215,14675,11088,10136,12000,24250,17889,5028,9494,12431,14149,12888,511
18.58.52.189484,9622,10739,13058,12054,18237,9281,421,13341,14531,14698,12265,24493
18.58.52.226699,11633,13652,14495,11065,324,8182,21773,16952,12207,10527,11334,24483
18.58.52.264874,15078,13734,11274,10730,6910,15425,24309,11673,10292,10583,12503,531
18.58.52.302432,11799,11019,10082,12111,24245,15284,1244,8237,11908,14141,13029,546
18.58.52.338400,9376,9736,12720,12077,24276,9986,1137,11883,14474,15717,12468,24463
18.58.52.375933,9169,13506,14800,11258,306,6163,18406,16265,14049,10763,12291,24486
18.58.52.413737,15083,14799,11921,10897,352,14873,23094,15507,10162,9667,11916,2625
18.58.52.450013,17587,11858,11085,10486,16945,15139,23322,9702,9013,13018,12773,572
18.58.52.487061,9917,10430,12463,12196,24258,11481,1845,10000,14433,14852,12526,18830
18.58.52.524409,6693,12860,13525,12674,13823,9327,415,14425,15973,12218,12076,24514
18.58.52.561237,13805,13562,14064,10967,351,12101,22395,17009,10848,10548,11964,14403
18.58.52.599448,17651,11693,11296,10877,19619,15191,23832,10424,10044,11817,12584,519
18.58.52.635313,12326,11048,10277,12117,24251,15591,3092,9676,10461,14116,12690,561
18.58.52.671014,9536,10410,12389,12077,24273,10519,492,11173,14546,15487,12601,24452
18.58.52.708731,8051,13253,13448,11873,1637,7167,12310,14787,16272,11951,12130,24515
18.58.52.744942,14227,13574,14151,10921,357,12557,22912,16330,12293,10609,11744,24487
18.58.52.780634,14889,14617,11672,11107,3503,15341,24293,11692,10323,9030,12356,487
18.58.52.817527,14848,11035,10211,11932,24247,17296,7092,9721,8928,13636,12682,546
18.58.52.854731,9432,9917,12735,12063,24268,10732,1226,7990,14133,13674,12833,18824
18.58.52.890981,6601,12850,13221,12320,8201,9295,4544,14474,16329,11408,12002,24506
18.58.52.929214,14985,14748,12102,11019,349,14205,22480,13758,10279,9341,12349,487
18.58.52.967375,15144,11221,11128,11419,23712,17859,10515,9692,8395,13572,12695,567
18.58.53.003032,10478,11062,11001,12325,24255,12274,627,7457,14013,13843,12891,12956
18.58.53.041304,6825,12991,13457,11909,3811,8701,9879,14571,16146,11652,12305,24514
18.58.53.077991,14117,13566,13663,10878,352,12352,22823,17139,10823,10759,11784,23113
18.58.53.115225,16210,12399,11213,10496,17735,15247,23412,10325,9336,12916,12633,563
18.58.53.152988,10490,11100,10941,12086,24249,12281,1682,7426,13198,14097,12910,4244
18.58.53.190164,8075,12651,13445,12332,6885,9399,418,14366,14883,12341,12076,24510
18.58.53.228369,14437,13705,13452,11008,355,11984,22236,16837,10874,10679,11944,6019
18.58.53.265954,17583,11729,11294,11279,24173,17505,10615,9908,9531,14002,12831,532
18.58.53.304275,9523,10006,12368,12112,24253,11395,2295,8376,14308,13841,12920,3818
18.58.53.340461,7361,12737,13400,12003,4196,9450,4806,14596,14981,12065,12133,24519
18.58.53.378491,14621,13604,12997,10992,353,13397,21751,15694,10546,10239,12193,494
18.58.53.416649,16752,11536,11334,11296,21207,15166,19571,9992,8450,13366,12399,565
18.58.53.452966,10543,11126,11293,12171,24258,13444,1934,8115,13709,13707,12915,514
18.58.53.489594,9243,12076,13488,12494,6573,9250,3090,14588,14476,12554,12177,24504
18.58.53.527785,13852,13643,13025,11060,376,14425,23057,15011,10301,9997,12192,483
18.58.53.567077,15364,11348,11248,11444,22124,16507,13809,9789,8442,13624,12669,567
18.58.53.603623,9826,10202,12541,12116,24276,11292,1827,9216,14315,14591,12624,24470
18.58.53.641888,8513,13475,13519,11675,1452,8313,5958,14812,15354,12352,12017,24510
18.58.53.676769,12722,13648,14241,10937,340,10755,21945,17042,12056,11021,11593,24485
18.58.53.714568,15337,13085,11369,10850,6180,15390,24322,10943,10469,11493,12716,553
18.58.53.751569,12510,11099,10097,12153,24245,17826,4865,8429,11345,14162,13015,537
18.58.53.787356,9575,10093,12716,12021,24272,10886,1355,9821,14469,14886,12594,10193
18.58.53.823412,7864,12399,13297,12625,16012,9454,426,12967,14281,14858,11985,24494
18.58.53.859758,12259,13560,14443,11014,338,9011,20608,15429,13987,10876,11771,24480
18.58.53.897518,14758,13694,11473,10802,7165,15200,24321,10649,10458,11356,12415,497
18.58.53.934343,13367,11033,10455,11806,24236,17499,6216,10087,9666,13888,12789,527
18.58.53.971589,9372,10594,13291,12309,19012,9445,4775,14482,15502,12737,12271,24494
18.58.54.009450,12073,13589,14215,11184,326,8395,21929,15468,12806,10745,11938,24490
18.58.54.046703,14829,14665,12169,11037,352,15225,23991,12639,10327,9590,12363,489
18.58.54.084099,13857,11128,10630,12015,24240,17741,7024,10030,10130,13896,12732,486
18.58.54.122099,9618,10787,13277,12182,21011,9583,1786,10827,14393,15233,12494,24334
18.58.54.157699,7173,13013,13473,11709,2265,9116,3046,14690,15652,11585,12075,24506
18.58.54.193850,13678,13595,14206,10905,338,11874,22775,16989,11498,10869,11634,24469
18.58.54.230592,15082,14092,11273,10807,7524,15356,24323,12374,10364,10053,12493,512
18.58.54.267821,12919,11068,10223,11997,24253,17235,3226,8715,12561,13888,13058,533
18.58.54.304517,9571,10083,12966,12081,22801,9281,419,13635,14312,13625,12093,24509
18.58.54.343144,12707,13528,14627,11145,324,6432,18060,14284,13722,10199,11721,24492
18.58.54.379458,14920,14779,11944,11033,353,14944,22582,12984,10201,9659,12455,501
18.58.54.417529,13332,11018,10264,11927,24245,15691,3665,9370,12303,14118,13245,486
18.58.54.455828,9430,11387,13333,12559,17455,9289,416,14196,14521,12441,12116,24509
18.58.54.493432,13321,13619,14452,10967,342,12624,22466,16772,10835,10719,11877,15373
18.58.54.531833,17047,11977,11317,11010,21788,16518,15528,10062,8527,13471,12788,550
18.58.54.570445,9621,10102,12624,12009,24265,10821,1490,9453,14231,14266,12572,23888
18.58.54.607702,7555,13185,13317,12044,4630,9519,1812,14395,15721,12563,12055,24516
18.58.54.644208,14203,13533,14174,10974,349,10775,22407,16813,11377,10948,11745,19167
18.58.54.681668,17244,12371,11238,10576,12538,15192,20662,9911,8511,12856,12604,559
18.58.54.718604,11227,11135,10910,12118,23858,13855,2599,8068,13471,13780,12980,16895
18.58.54.757343,7042,13113,13407,11898,1502,7522,13312,14585,15319,10834,11914,24498
18.58.54.796292,14780,13350,11370,10833,8051,15355,24325,12039,10398,9771,12236,495
18.58.54.833476,13856,11090,10620,11908,24238,16113,6203,10067,10391,13848,12835,522
18.58.54.871332,9562,9933,13030,12022,22299,9898,418,12728,14256,14766,12376,24486
18.58.54.908820,10879,13585,14385,11145,332,6858,18591,14497,13318,10831,11609,24487
18.58.54.946164,14828,14630,11938,11034,340,14641,21349,13312,10351,9891,12299,1017
18.58.54.982563,16939,11363,11325,11167,21882,16201,13805,10280,8721,13580,12590,538
18.58.55.020500,9688,9933,12166,12027,24263,10407,3161,11256,14239,14861,12522,24415
18.58.55.057316,7229,12940,13533,12367,6186,9657,2889,14570,15847,12601,12139,24510
18.58.55.094096,14166,13521,14104,10884,347,12907,21537,15603,10677,10703,12080,644
18.58.55.132506,16948,11408,11090,11531,22923,15980,16397,9831,8696,12902,12727,569
18.58.55.168522,11045,11207,10371,12041,23809,16349,5019,9474,12089,13800,12808,515
18.58.55.204674,9648,10731,12926,12275,15387,9656,418,13869,14152,13099,12199,24505
18.58.55.243315,13298,13506,14365,11046,405,8958,20522,15381,11137,10855,12005,5401
18.58.55.281791,17533,11904,11419,10735,18800,15052,18230,10212,9993,12560,12593,563
18.58.55.319045,10367,11124,11634,12128,23834,13859,3312,8471,13675,13481,12734,7777
18.58.55.356050,7866,11857,13285,12391,7260,9654,422,13846,14215,14137,12555,24503
18.58.55.392938,12801,13588,14538,11167,330,7234,17369,14385,15629,11276,12098,24503
18.58.55.428150,15427,13950,12533,10989,347,14283,21589,13843,10303,9799,12376,490
18.58.55.466219,17455,11481,11314,11041,19933,15884,20676,9863,8553,12825,12663,573
18.58.55.502492,9182,11140,11595,12180,24256,12818,2028,8152,13919,13861,12867,14422
18.58.55.539742,5240,12285,13452,12525,6967,8226,8417,14599,16148,11626,11769,24516
18.58.55.578054,15779,14703,12602,11015,369,16193,20787,15190,10383,10697,11849,537
18.58.55.615477,19798,11498,11269,10978,355,17972,16036,9925,9402,12208,13075,557
18.58.55.651152,12324,11145,10320,12105,24236,18141,4051,8493,13154,13879,13999,494
18.58.55.688847,7846,11711,13476,12390,24256,6424,727,12714,14442,15391,12599,20659
18.58.55.723320,4365,12953,13460,11872,15503,945,14859,14725,16307,11656,11635,24527
18.58.55.760037,14021,13575,13424,10860,376,12653,21426,16396,11722,11054,11163,24490
18.58.55.797093,16126,13554,11260,10577,16398,17395,23010,10342,9902,12317,12574,573
18.58.55.835073,10501,11090,10358,12049,24246,17695,3832,8807,13105,13649,13073,472
18.58.55.871775,8726,10838,13211,12175,18131,8327,441,13008,14278,14995,12401,24477
18.58.55.908144,8963,13346,13818,11534,341,8111,13584,14464,16016,11649,11812,24515
18.58.55.944025,14742,13563,12748,10994,361,14580,21003,13480,10407,9921,12799,487
18.58.55.983518,13979,11184,10685,11968,24240,18000,4964,9715,12270,13427,13084,518
18.58.56.020539,9089,10245,13160,12063,23592,9384,1870,13188,14171,14241,12107,24467
18.58.56.058012,9393,13425,13247,11670,348,6492,16471,14606,15125,11084,11578,24498
18.58.56.094617,15014,13940,13162,10928,366,14138,20851,15582,10758,11256,11898,802
18.58.56.131835,17867,11953,11381,11098,21650,15757,15543,10327,9068,13103,12668,564
18.58.56.169387,9696,10539,12198,12045,24257,12450,3496,8907,14054,13466,12850,17951
18.58.56.206391,6777,12581,13432,12185,1478,7157,11833,14311,15957,11491,12026,24507
18.58.56.244277,14924,13669,13312,10927,351,13676,20703,14001,10375,9995,12275,5073
18.58.56.281638,17807,11601,11399,11090,20838,15489,21564,10226,9180,12328,12590,566
18.58.56.318787,10024,11223,11464,12071,24251,12293,3574,8659,13409,13747,13118,4777
18.58.56.355543,8359,11919,13462,12478,13274,9116,587,14263,14617,12450,12415,24516
18.58.56.393713,14478,13807,13018,10915,344,12245,22239,16447,10794,11195,11823,22497
18.58.56.430489,15766,12840,11433,10877,9580,15834,24330,10660,10534,10541,12678,521
18.58.56.467121,12939,11140,10299,12061,24244,14533,3290,8362,13429,13782,13857,1391
18.58.56.505831,6410,12299,13324,12716,8859,7983,1397,14139,14396,12696,11631,24515
18.58.56.542785,13585,13461,14211,11049,346,9163,21402,17273,11646,11098,10311,24481
18.58.56.579679,15982,13350,11200,10540,356,18092,24226,10333,9892,12401,13634,592
18.58.56.617690,11643,11134,10269,12201,24245,15461,2592,6573,13323,13546,14860,505
18.58.56.655059,7978,11899,13246,12647,24240,5694,477,14146,14237,13006,11124,24534
18.58.56.692504,13065,13544,14587,10961,348,6130,19716,15877,12593,11205,9461,24499
18.58.56.729496,16165,13428,11259,10513,371,18680,24357,10297,9697,12466,13561,588
18.58.56.768018,10716,11117,10446,12172,24246,15844,2873,7588,13293,13713,14710,482
18.58.56.804859,7947,10850,13410,12407,24247,6459,436,13906,14285,13738,11574,24513
18.58.56.841901,11225,13550,14591,11082,341,3532,18825,14654,13128,10938,10810,24486
18.58.56.879025,16105,14564,11667,11029,340,16856,24094,11775,10393,10144,12814,489
18.58.56.916097,15922,11167,10792,11871,24243,19245,6173,9887,12240,13704,13420,526
18.58.56.954029,8677,10619,13196,12188,21604,7978,1580,12305,14297,14816,12445,21114
18.58.56.990552,6813,13274,13094,11904,606,5732,10429,14479,15567,11692,11712,24516
18.58.57.026688,14537,13489,13343,11024,347,10890,20630,15520,12589,11327,11236,24484
18.58.57.063191,15619,13633,11328,10699,6978,16195,24327,11198,10582,11832,12802,550
18.58.57.100313,12804,11209,10571,11968,24243,17474,4653,9279,12955,14211,13262,486
18.58.57.137662,9201,10466,13246,12010,21761,8128,2387,11803,14233,14574,12375,24339
18.58.57.173948,7898,13365,13974,11313,321,5822,17309,14459,15147,10682,12113,2953
18.58.57.214547,17998,11887,11262,10640,15603,15830,21783,10433,10187,11796,12845,534
18.58.57.250449,12371,11159,10509,12027,24241,14460,3917,8383,13415,13497,13076,2626
18.58.57.289066,7149,12737,13274,12161,4373,8851,3284,14232,15439,12351,11333,24507
18.58.57.326743,14227,13619,13140,10928,361,11587,20095,15711,12400,11225,11454,24498
18.58.57.361925,15012,14295,11938,11045,351,15586,20378,12178,10510,10215,12632,493
18.58.57.399714,14139,11311,10997,11829,24240,18890,8703,10371,9335,13908,12758,543
18.58.57.435818,9384,10463,12326,12056,24272,10257,5026,10968,14383,14571,12554,24452
18.58.57.473631,8071,13228,13249,12441,7514,8695,2368,14401,14959,12006,11868,24506
18.58.57.508596,12503,13466,14150,11003,332,9293,19728,13967,13215,10806,11170,24493
18.58.57.544925,15429,14785,12304,10848,373,14134,21981,16811,11466,10660,11561,10526
18.58.57.580990,18621,11712,11249,11938,24232,22186,9793,9857,10202,13866,15088,521
18.58.57.620494,8276,10589,12952,12140,24258,3753,439,14182,14187,12941,9288,24534
18.58.57.659132,13514,13546,14581,11101,351,456,20823,16407,11967,10810,1159,23667
18.58.57.696586,17423,13227,11325,10952,384,24344,24383,10605,10364,10913,18541,574
18.58.57.733632,12900,11067,9955,12100,24252,24333,2323,3848,13550,13701,23892,2864
18.58.57.771676,6501,12607,13569,12662,24242,410,5163,16266,16125,11942,2882,24544
18.58.57.809785,14939,13493,14008,10837,408,17237,21714,18076,10464,10150,9960,2929
18.58.57.847537,20939,11865,10791,11468,13812,24382,12917,8544,8792,13572,19287,582
18.58.57.886272,8135,9928,12364,12144,24287,5857,1890,5787,13976,13658,15653,16315
18.58.57.922613,3628,12841,13532,12418,24241,1286,6112,15418,16166,11361,8118,24533
18.58.57.959820,14913,13489,14008,10876,378,13054,21576,17573,10705,10979,11458,2317
18.58.57.997859,19952,11711,11183,10850,19144,18732,23377,9607,9400,12936,14838,583
18.58.58.033847,11676,11172,10463,12122,24246,16724,4237,9480,11760,13693,15982,534
18.58.58.070011,8854,10350,13151,12125,24267,5094,1512,13071,14273,14353,10751,24484
18.58.58.108126,11672,13589,14192,11308,331,1128,16886,13741,15933,11324,10709,24496
18.58.58.144476,15382,14637,12156,11019,366,16365,20221,15123,10683,11333,11382,20002
18.58.58.180194,16762,12693,11680,10626,6630,17896,23707,10399,9413,12549,14036,568
18.58.58.216969,12025,11200,10018,12115,24248,12254,3753,8044,13568,13259,13198,9471
18.58.58.255869,6269,12940,13093,12480,6089,7198,5961,14597,14951,12379,10803,24517
18.58.58.293102,14367,13652,12761,11067,369,15527,20025,14486,10441,9630,12891,629
18.58.58.331500,17346,11548,11387,11269,23099,20940,9396,10871,10622,13659,14041,557
18.58.58.369377,9222,10040,12367,12103,24272,10298,4127,10065,14205,14471,12323,24348
18.58.58.406165,7104,13182,13365,11542,313,3012,14009,14496,15424,11228,10843,24501
18.58.58.444495,15365,14653,11795,11030,357,17271,23132,11934,10655,10710,13779,492
18.58.58.482827,13732,11233,9900,12054,24247,20888,9778,9868,9501,13545,15532,531
18.58.58.519206,9729,10077,12303,12047,24268,8922,1992,10559,14318,13841,13034,14213
18.58.58.555893,6002,13046,13352,11839,1103,6474,7898,14683,15612,12385,10744,24496
18.58.58.591788,12843,13557,14471,11095,322,3605,18981,14679,14798,10958,10977,24506
18.58.58.627283,15312,14288,12268,11106,368,16669,20631,14481,10351,9983,13243,485
18.58.58.665434,16425,11335,10710,11956,24258,10715,4253,7912,13634,13560,14850,621
18.58.58.704342,8034,11812,13383,12091,24278,5084,720,13053,14332,14920,11100,24488
18.58.58.740860,9648,13465,14240,11181,332,423,18679,15097,13610,10911,7316,24487
18.58.58.778439,16470,14537,11941,11094,390,17978,20974,14067,10367,10449,11965,10690
18.58.58.813873,20325,11910,11168,11196,16554,22497,10660,9552,9215,13487,15482,551
18.58.58.853016,7787,9904,12961,12060,24276,7279,2554,10910,14497,14812,12191,24471
18.58.58.890496,7987,13518,13666,11676,345,918,13422,15173,15385,11004,9090,24517
18.58.58.927100,16842,14704,12415,10987,391,16828,20776,15026,10319,10105,12538,1167
18.58.58.964150,20482,11964,11212,10788,6359,19269,23752,9751,10274,12346,14868,600
18.58.59.000687,10665,11157,10379,12176,24249,14233,2298,7553,12515,13748,16443,520
18.58.59.036966,8189,10293,13019,12157,24274,6317,1802,11016,14484,14739,12015,23705
18.58.59.072664,4035,13074,13768,11656,325,443,16516,14911,14428,11029,9030,24510
18.58.59.111153,16342,14895,12345,11057,382,17727,20718,13577,10460,9943,12511,533
18.58.59.147938,19584,11245,11200,11167,18552,20550,19566,9536,10005,12167,14476,588
18.58.59.183255,12299,11153,10149,11970,24250,19837,3464,7315,13361,13360,15308,1488
18.58.59.221217,7136,12185,13488,12425,14959,5668,3728,14980,14823,12881,10440,24500
18.58.59.258060,12147,13546,14578,10991,344,6745,20308,16898,11341,11284,9778,22544
18.58.59.296225,17342,12981,11689,10963,403,19113,24341,10912,10555,11161,14067,541
18.58.59.332348,15193,11181,10213,11938,24243,22762,4981,8795,11704,13715,15468,535
18.58.59.369280,7945,9938,12965,12085,24267,5479,434,13454,14305,14250,11206,24487
18.58.59.407327,9583,13520,14635,11284,334,448,16615,14981,14376,11195,8639,24498
18.58.59.444118,16837,14894,12135,10992,363,18482,23509,12113,10485,10603,13667,513
18.58.59.482203,15756,11158,10766,11541,24249,24306,11455,9697,9075,13612,14190,579
18.58.59.518276,8410,10591,11850,12163,24257,10981,3705,7489,13840,13578,14970,2435
18.58.59.554908,4764,12701,13416,12528,8008,5829,4037,14968,16012,12083,10160,24524
18.58.59.592702,15292,14450,12587,10991,378,18711,24339,11137,10600,11520,14242,547
18.58.59.632511,14450,11064,10602,11642,24146,21774,11209,9344,8847,13192,14006,587
18.58.59.667857,9140,10720,12133,12189,24268,10332,3651,8442,14041,13473,14028,14225
18.58.59.705057,3773,12585,13316,12671,21423,5690,420,14296,14214,13647,10531,24514
18.58.59.741758,13436,13502,14039,10938,363,11894,20784,17084,10858,10931,11339,13156
18.58.59.780027,20106,11881,11238,10766,20588,19060,16545,9799,8810,13411,14375,574
18.58.59.818370,8754,10300,12439,12061,24261,12481,3725,7942,13949,13800,13942,2413
18.58.59.854566,5407,12462,13521,12570,18920,5866,2305,14842,14940,12194,10186,24517
18.58.59.892242,14380,13507,13786,10953,349,11376,20983,17469,11260,11190,11316,2780
18.58.59.930208,20596,11977,11292,10959,21181,19242,16832,10101,9725,12541,14232,582
18.58.59.966571,11716,11158,10184,12064,24247,18436,5242,9795,11848,13586,15103,544
18.59.00.002592,7906,9950,12961,11974,24269,6155,419,13547,14117,14331,10940,24496
18.59.00.041176,12351,13655,14571,11094,340,1929,17174,14674,13685,11130,9436,24494
18.59.00.077922,16199,14592,12163,11083,358,18338,21630,12386,10455,10586,12519,485
18.59.00.114497,19113,11336,10820,11633,24244,23700,8051,9922,9698,13662,14211,554
18.59.00.152172,8233,10013,12449,12066,21955,5996,630,14030,14194,13732,10738,24490
18.59.00.190177,8545,13435,13634,11695,1392,5201,10513,14632,15970,12162,10546,24514
18.59.00.225606,14688,13515,12946,10921,357,10599,20158,16464,11525,11000,8972,22364
18.59.00.262785,17974,12405,11689,10750,24240,22610,6872,9679,10888,13571,14548,556
18.59.00.301499,8460,10002,13019,12037,24271,8172,4713,10103,14215,13786,13826,1152
18.59.00.337789,5940,12574,13511,12634,13182,6443,3134,14447,14657,12518,10499,24523
18.59.00.374959,13522,13493,13697,10985,358,14313,20633,16778,10884,10872,12045,517
18.59.00.413810,20471,11812,11231,10937,17924,17978,18946,10002,9977,12236,13664,588
18.59.00.450986,9144,10676,12191,12185,24246,12158,4337,8297,14034,13685,13188,6967
18.59.00.487806,5959,12114,13410,12373,21992,6273,431,13732,14133,13158,10329,24522
18.59.00.525153,14149,13512,13955,10973,359,12777,20367,16613,11012,11304,10369,21514
18.59.00.562315,16913,13195,11290,10565,14758,18130,23331,10321,9940,12660,14235,543
18.59.00.602194,8045,10120,13104,12036,24262,6412,424,13725,14130,13756,11143,24461
18.59.00.639964,8235,13468,13705,11574,309,2538,14755,14895,15304,11281,10337,24505
18.59.00.677090,16155,14710,12390,10968,382,15360,20533,16425,10771,10870,11421,14621
18.59.00.712507,17360,12756,11279,10627,7924,18188,23630,10287,9695,12637,14026,579
18.59.00.750935,9123,10964,11240,12184,24268,10134,4338,9979,14090,14113,12382,24462
18.59.00.789174,5095,13463,13699,11675,317,3377,14663,14842,15880,11733,10689,24515
18.59.00.826296,15581,14460,12273,10867,383,15685,20417,15458,10585,10628,12577,489
18.59.00.864723,16874,11412,11217,11265,23317,18367,15018,9839,8785,13164,13751,542
18.59.00.902047,8363,10029,12538,12198,24255,11350,3759,7748,13549,13475,14626,1238
18.59.00.937245,7442,11448,13487,12445,15282,6984,3985,14582,14929,12532,10918,24517
18.59.00.974766,13539,13543,14494,11041,330,2070,16962,14653,15153,10974,10991,24504
18.59.01.010421,15870,14859,12807,10946,387,13834,20314,16677,10837,11083,12174,7260
18.59.01.046536,19789,11810,11336,10899,21752,19594,12474,9934,8843,13337,13811,565
18.59.01.084839,8516,10254,12445,12155,24265,8928,3888,9864,14401,14490,12659,24459
18.59.01.122600,5884,13279,13335,12088,2105,5523,12616,14898,16285,11488,11028,24514
18.59.01.160010,15979,14744,11840,11082,371,15655,20316,15541,10473,10665,12415,1448
18.59.01.196466,20351,11970,11383,10930,18976,17803,18121,9950,9820,12547,13788,580
18.59.01.233500,9827,10928,11880,12174,24243,13624,3215,8133,14219,13554,13162,15043
18.59.01.272013,3814,12856,13433,12010,690,3278,11660,14531,16259,11449,10985,24505
18.59.01.310379,16318,14639,11840,11029,372,15957,20577,13473,10340,10658,12426,475
18.59.01.346638,20689,11949,11201,11607,24243,21654,11405,9983,8583,13409,13538,543
18.59.01.384885,8136,10440,12429,12130,24265,10300,4089,8261,13859,13806,13422,6380
18.59.01.421370,3713,12654,13431,12646,15856,7155,424,14125,14752,13032,11045,24508
18.59.01.457110,11816,13554,14053,11209,334,3761,17611,13822,15146,11160,10471,24511
18.59.01.493300,16508,14456,12721,10943,372,15709,20215,14999,10455,11197,11600,6434
18.59.01.530058,20916,11636,11265,10732,17615,17461,19660,10166,8457,13109,13646,568
18.59.01.567966,8132,10509,12088,12243,24254,11934,3989,7994,13851,13510,12562,11820
18.59.01.604313,4661,12191,13416,12635,14203,7428,3793,14444,14342,13678,11196,24505
18.59.01.640379,11066,13548,14484,11061,343,6541,19561,16134,11677,11130,10937,11964
18.59.01.679559,20648,12389,11421,10465,4718,17355,23740,11061,10433,11426,13233,568
18.59.01.716162,11510,11258,10562,11910,24243,13048,3931,8258,13904,13519,13120,3930
18.59.01.753951,6111,12568,13294,12706,5458,7594,4107,14706,15880,11920,11196,24507
18.59.01.792410,15692,14209,12533,10954,378,16139,20861,14524,10409,10925,11332,4355
18.59.01.829638,20347,12457,11035,10794,22098,18638,13035,9963,8477,13587,13468,556
18.59.01.868054,8169,10294,12413,12183,24275,10915,4677,8307,13342,13466,13750,3078
18.59.01.903726,7237,11865,13507,12481,21543,7293,425,13671,14312,14445,11203,24483
18.59.01.940182,10787,13648,14300,11376,315,2833,17368,14413,13607,11239,10057,24490
18.59.01.977692,16752,13709,11630,10978,349,21152,7787,10088,8654,13146,13622,578
18.59.02.017886,8264,10199,12255,12177,24264,9688,3807,8788,13916,13573,14331,486
18.59.02.052880,7788,10534,13196,12370,18797,7422,419,13849,14259,13244,11266,24503
18.59.02.090186,10947,13471,14504,11033,339,4767,18883,14832,12694,11120,9936,24481
18.59.02.127407,16439,13983,11892,10999,1402,17242,24330,10918,10468,12139,13505,568
18.59.02.166010,11526,11113,10452,12017,24243,17779,5585,10209,11248,13637,14117,524
18.59.02.202410,7885,10699,13249,12065,24258,7456,417,13864,14367,14254,11559,24470
18.59.02.239585,8526,13432,13588,11674,893,3838,13424,14522,15590,11510,11196,24513
18.59.02.275908,16042,13984,12996,10893,359,13398,20288,16655,11121,11296,11000,22370
18.59.02.312184,18352,13002,11255,10508,4710,17071,23818,10379,9577,12133,13591,579
18.59.02.349324,11195,11129,10172,12005,24237,20692,8600,10105,8728,13413,13635,560
18.59.02.384590,8668,10183,12361,12203,24247,11621,3916,9304,14036,13476,13419,6834
18.59.02.421011,4132,12829,13400,12644,16733,7524,5903,14397,15664,12506,11130,24521
18.59.02.458145,14324,13553,13870,10983,367,12553,19777,16457,11449,11235,10680,24490
18.59.02.495174,17544,12979,11274,10727,1636,17094,24329,10920,10409,11679,13409,556
18.59.02.532352,11742,10865,10316,11937,24244,21066,7646,10206,10463,13738,14117,516
18.59.02.568847,7940,9894,13457,12204,24265,7756,1967,12890,14367,13631,11461,24477
18.59.02.606352,9247,13208,14611,11234,333,4094,17736,14297,14255,11208,10243,24500
18.59.02.643308,16181,14678,12095,11085,356,16125,20756,13056,10426,10245,13133,487
18.59.02.680636,18264,11445,10770,11876,24246,21006,10497,10229,9273,13313,13352,559
18.59.02.717752,8144,10005,12668,12081,24278,9301,4891,9987,14088,13849,13028,17279
18.59.02.754294,3994,12433,13294,12662,12494,7737,4092,14462,15410,12243,11104,24517
18.59.02.791844,15117,13954,13053,10942,374,14488,20197,15095,10511,11275,12049,14815
18.59.02.829101,19236,12382,11310,10535,13319,16845,20428,10164,8893,13042,13457,577
18.59.02.866087,10849,11140,10439,12092,24234,13891,4203,8157,13798,13435,13378,7348
18.59.02.904286,4078,12403,12942,12403,1624,6622,11444,14093,16119,11815,11253,24515
18.59.02.940976,13811,13516,14193,11009,328,6575,19386,16146,11976,11196,10185,24484
18.59.02.977512,16045,14236,11591,11059,685,16993,24107,11635,10451,10383,13331,506
18.59.03.014368,16255,11358,10805,11828,24238,18113,5196,9345,11497,13412,13983,543
18.59.03.051003,8343,10391,11947,12167,24261,13200,3975,8520,13986,13432,12943,5642
18.59.03.087110,5560,12275,13214,12622,19586,7573,424,13954,14291,12824,11332,24505
18.59.03.123404,11680,13530,14405,11008,340,10273,20340,16391,11837,11217,10751,23364
18.59.03.161297,16330,13258,11425,10991,348,17049,24012,11448,10489,11279,13133,492
18.59.03.197429,16643,11232,10578,12117,24239,15447,5067,8830,12150,13442,14549,503
18.59.03.235349,8146,10994,13113,12104,24270,8104,2358,12407,14449,14523,12166,24463
18.59.03.272363,7218,13454,13744,11567,594,6108,12190,14183,15974,11489,10921,24502
18.59.03.309292,15920,14548,12522,10913,376,15006,19904,15564,10793,11126,12029,3294
18.59.03.346282,20073,11584,11365,11133,23935,20448,13459,10395,8871,13128,13424,547
18.59.03.384620,8442,10022,12627,12054,24272,8605,4281,10847,14461,14521,11926,24477
18.59.03.422027,6395,13313,13362,11621,323,3243,16784,14466,15805,11229,11058,24498
18.59.03.459670,16123,14605,11775,11083,352,16682,22076,12564,10338,10475,12896,494
18.59.03.497770,15372,11162,10189,11975,24246,17282,4306,8489,13478,13473,14357,471
18.59.03.536515,7775,11235,13335,12626,18535,7547,832,14231,14178,13105,11417,24497
18.59.03.573632,12855,13491,13757,10918,339,11065,19915,15988,11870,10837,11344,22328
18.59.03.611807,17542,12163,11220,10465,10357,17054,23441,10766,10483,10988,13228,508
18.59.03.648025,13753,11088,10328,11959,24241,18739,4244,9104,12460,13530,14520,482
18.59.03.686379,8062,12032,13344,12621,20340,7765,1097,14140,14749,12472,11314,24520
18.59.03.724812,14771,13568,13208,10901,365,11705,19092,15368,10901,11090,11609,8722
18.59.03.761989,18596,12435,11319,10507,15732,16787,21804,10075,9682,12680,13307,581
18.59.03.799037,11362,11134,11060,12149,24242,14522,4575,8104,13559,13317,12938,11810
18.59.03.837609,4633,12713,13400,12267,7006,7713,834,14073,14283,13901,11584,24476
18.59.03.872887,10320,13506,13846,11460,352,5764,12361,14462,15845,11846,11193,24510
18.59.03.908751,15731,13813,12765,10925,372,13954,19841,16316,10967,11150,11520,3374
18.59.03.945609,19572,12270,11262,10513,12040,16982,23199,10372,9044,12850,13528,576
18.59.03.982205,11761,11086,10110,12085,24248,15363,4120,8273,13593,13420,14169,473
18.59.04.019272,8356,10684,13328,12325,20866,7808,704,14321,14263,12436,11206,24500
18.59.04.056842,12611,13535,14651,11164,331,3595,17323,14693,15012,11526,11044,24508
18.59.04.091844,15041,13567,13504,10890,373,14408,20026,15832,11020,11306,11771,9354
18.59.04.128588,18303,12552,11381,10584,17512,16680,17397,10286,8586,13152,13401,565
18.59.04.167083,8842,10878,11589,12137,24274,11570,4258,9090,13778,13446,13461,1749
18.59.04.203515,5898,12817,13511,12592,16377,7609,1727,14239,15887,12165,11317,24514
18.59.04.241406,14960,13405,13288,10950,360,14805,19827,15549,10639,10867,11993,2034
18.59.04.279466,19679,11567,10900,11216,21492,16984,19393,10308,9255,12320,13396,568
18.59.04.315623,10962,11126,11009,12148,24244,13760,4235,8493,14048,13460,13907,469
18.59.04.353212,6629,11888,13556,12608,6177,7455,7722,14105,15294,11738,11131,24512
18.59.04.391864,15481,14248,12394,10978,344,16935,24275,10781,10468,10607,13167,497
18.59.04.430399,17013,11357,11291,11215,23194,18869,12496,10084,8678,13353,12743,556
18.59.04.467102,8638,10564,11858,12198,24248,11786,3441,8411,13817,13375,14744,468
18.59.04.503033,7172,11531,13345,12605,10530,7621,6097,14575,16238,11853,11143,24520
18.59.04.541504,15465,13653,13364,10949,337,8757,20148,15319,12540,11175,10013,24494
18.59.04.576676,16092,13473,11277,11074,354,16537,20377,14002,10461,10590,12783,486
18.59.04.613052,19530,11680,11250,11325,23146,19647,12073,10223,9575,13358,13650,550
18.59.04.651026,8381,9974,12677,12073,24274,8346,3916,12249,14442,14488,11961,24468
18.59.04.688530,6990,13304,13341,11796,1993,7374,9867,14878,15764,11889,11151,24505
18.59.04.725424,15796,14590,12229,10979,350,16752,21941,12257,10525,11213,13220,509
18.59.04.764604,13497,11142,10214,11932,24244,21049,7057,9164,12035,13548,13999,547
18.59.04.800954,8669,10051,12737,11953,23677,7692,2330,13235,14420,13522,11244,24514
18.59.04.840295,13467,13554,14478,10948,335,9662,20767,16308,11244,11344,11029,15336
18.59.04.878796,19090,12128,11206,10573,16519,16712,20816,10188,9372,12909,13291,569
18.59.04.915314,11437,11211,10360,12028,24247,16694,5744,9138,12205,13429,14350,499
18.59.04.952112,8638,11261,13129,12135,22396,7159,419,13566,14250,13629,11530,24473
18.59.04.989408,11532,13560,14111,11294,313,1821,16912,13834,13616,11354,10435,24500
18.59.05.025719,15633,14468,12525,10900,364,15853,20696,13996,10272,10183,12919,487
18.59.05.063662,16224,11166,10460,11967,24237,22877,9106,10121,10470,13615,14780,478
18.59.05.102684,7865,11724,13389,12496,21070,6258,946,12807,14412,14388,12641,20998
18.59.05.137703,4738,13171,13368,12040,3305,3117,11347,14553,15889,11384,10857,24505
18.59.05.175920,16372,14645,11845,11036,366,16834,20225,13041,10335,10168,13042,493
18.59.05.213430,17208,11328,11044,11512,23874,20945,13751,9682,11827,13585,13942,554
18.59.05.250703,8670,10359,12500,12100,24280,10222,5019,10489,14389,13985,12837,7332
18.59.05.286601,5607,12683,13385,12130,1705,3614,13808,14550,15595,11572,11066,24505
18.59.05.325129,15703,14510,12553,10997,365,17424,20479,13890,10491,11263,10848,17011
18.59.05.361055,16852,12957,11443,10794,6960,17990,24329,11236,10619,11932,13534,519
18.59.05.397714,13696,11098,10280,11962,24246,16854,4351,8498,13256,13475,14119,966
18.59.05.436341,6582,12443,13511,12613,14610,7124,718,14061,14311,12515,11267,24515
18.59.05.472952,12160,13506,14399,11113,326,4007,19740,14058,13549,11496,11236,24500
18.59.05.509285,15798,14599,12410,11084,367,15471,20102,15779,10714,11016,11936,1872
18.59.05.545792,19443,11936,11363,10673,17649,17061,9736,10111,9226,13114,13237,551
18.59.05.583425,8946,10465,12225,12101,24247,12736,4030,8327,14307,13897,12608,9626
18.59.05.620583,4924,12779,13471,12010,3843,7454,7142,14336,16049,11720,11271,24523
18.59.05.657202,14060,13455,13116,10902,365,14898,20130,14026,10532,11112,11694,9295
18.59.05.694719,17460,12614,11477,10535,10108,17221,24142,10654,10028,12368,13649,577
18.59.05.732453,10077,11234,10626,12083,24236,15829,4234,8327,13370,13452,14217,1029
18.59.05.769576,6696,12257,13177,12527,14505,7084,1121,14176,15114,12338,11038,24516
18.59.05.807179,14031,13481,13488,10915,352,9236,19308,16237,11467,11337,10648,24480
18.59.05.843904,15941,13525,11497,10979,2221,17550,24334,10597,10396,12274,13555,578
18.59.05.882088,10607,11163,11659,12155,24254,11589,4425,8429,13874,13389,13231,11909
18.59.05.920387,4137,12792,13372,12523,11239,7504,4825,14457,15695,11968,11164,24511
18.59.05.956669,13367,13535,14384,11020,330,7682,19821,16034,11445,11248,10528,24476
18.59.05.994069,16264,12846,11263,10577,12750,17181,24281,10773,10555,12162,13371,577
18.59.06.032374,10049,11103,11452,12086,24245,14251,4073,8238,13364,13554,14599,505
18.59.06.068476,8513,11145,13305,12504,19450,7307,414,13778,14156,13281,11201,24515
18.59.06.106399,12830,13484,14101,10924,327,8519,19785,15884,11848,11335,10521,23072
18.59.06.144388,17036,12982,11404,10861,1637,17037,24281,11042,10523,10452,13015,479
18.59.06.179341,18907,11651,11204,10730,16262,16882,19085,10708,9766,12300,13293,570
18.59.06.215827,9627,11168,11166,12154,24245,13037,3867,7966,13793,13340,13071,14850
18.59.06.253988,4842,13036,13361,12127,1770,7294,4910,14291,14887,12397,11267,24509
18.59.06.289746,12542,13522,14757,11077,328,6329,19436,15948,11901,11432,10193,24486
18.59.06.327062,15892,13956,11724,11090,3635,17055,24198,11576,10477,11432,13388,527
18.59.06.363728,14794,11129,10299,11985,24240,20428,8408,10096,12669,13485,14386,489
18.59.06.401665,8541,11077,13108,12152,24266,7617,2222,12511,14331,14668,12146,24467
18.59.06.438422,8848,13368,13362,11490,377,3780,15043,14469,15127,11357,11081,24508
18.59.06.474850,15696,14646,12201,11056,361,16035,20452,14068,10512,10821,11995,9592
18.59.06.511461,19871,11982,11281,10462,19023,16909,21177,10375,10068,12673,13437,575
18.59.06.548660,10437,11211,10809,12118,24247,18734,5319,9001,12126,13532,14327,513
