13.22.32.890576,17571,9347,11987,10060,15699,15341,9379,10088,8945,8818,3068,3043
13.22.32.929489,3038,9329,11951,10063,14626,4930,9376,10126,9069,8798,15748,17477
13.22.32.966767,10071,9308,11934,10039,3000,8561,9368,10098,9009,9512,17521,17496
13.22.33.002798,13425,9320,11925,10032,4520,11237,9356,10100,8979,9272,14460,3041
13.22.33.041071,17476,9304,11921,10037,15134,15396,9346,10101,9367,8815,3057,3043
13.22.33.078858,3055,9340,11983,10060,17514,8220,9379,10112,8532,8436,3250,17470
13.22.33.116025,8602,9318,11945,10066,3002,6857,9368,10093,7977,9351,17521,17513
13.22.33.153850,14857,9315,11941,10025,3976,10905,9331,10068,9623,9119,11144,3029
13.22.33.191768,15756,9289,11891,10036,17456,13468,9339,10094,8806,8633,3040,17461
13.22.33.231547,5857,9350,11975,10077,2993,5983,9388,10126,9043,9246,17549,17543
13.22.33.269693,13380,9354,11964,10096,4218,10657,9374,10121,8983,9270,15779,3036
13.22.33.306524,17540,9343,11949,10082,14853,15370,9369,10115,9374,8917,3066,3039
13.22.33.345490,3045,9354,11977,10079,17489,10234,9381,10108,8897,8437,3045,17458
13.22.33.382183,7346,9291,11943,10061,2984,6502,9361,10068,9161,9309,17505,17497
13.22.33.419941,13573,9307,11936,10052,7762,11446,9352,10043,8981,9045,7842,3024
13.22.33.458571,14215,9291,11862,10000,17046,13304,9288,10029,8744,8656,3003,7944
13.22.33.496713,2977,9232,11891,10027,3251,5083,9313,10063,9057,9020,17451,17443
13.22.33.535873,13184,9261,11929,10101,3199,10661,9394,10143,9137,9238,15907,3051
13.22.33.573408,17583,9355,11985,10139,14872,14675,9401,10140,9033,8731,4430,3066
13.22.33.610532,3057,9348,11992,10107,17536,8644,9392,10137,8666,8468,3171,17504
13.22.33.648347,6175,9338,11982,10119,3049,6115,9373,10123,7908,8871,17533,17513
13.22.33.685642,13050,9351,11976,10105,5747,11268,9386,10123,9609,9245,8853,3049
13.22.33.725724,10468,9339,11963,10090,17508,14744,9373,10104,9290,8805,3047,3039
13.22.33.762329,3033,9326,11962,10101,17062,5887,9384,10117,8825,8553,13286,17496
13.22.33.800077,10519,9342,11956,10116,3001,8460,9355,10099,8962,9394,17437,17439
13.22.33.836552,13579,9323,11941,10056,6593,11472,9343,10075,8958,9128,10845,3009
13.22.33.874450,17049,9292,11871,10033,17418,13589,9327,10052,9066,8616,3023,16189
13.22.33.914046,3536,9288,11931,10083,4702,4713,9340,10065,9031,8966,17514,17498
13.22.33.951072,12179,9353,11970,10139,3006,9753,9389,10131,9040,9446,17613,11536
13.22.33.988428,17572,9363,11993,10142,13521,14099,9382,10116,9386,8692,3048,3046
13.22.34.027553,3027,9356,11997,10157,17550,7587,9403,10153,8793,9247,17590,17566
13.22.34.068637,13085,9387,12025,10162,3259,10822,9410,10154,9122,9163,13972,3067
13.22.34.106742,17610,9384,12030,10173,15099,15603,9416,10182,8865,8932,3083,3076
13.22.34.144363,3071,9415,12022,10163,17583,9789,9419,10168,8885,8476,3077,17578
13.22.34.181017,4681,9405,12066,10209,3050,5603,9445,10196,8107,9182,17652,17630
13.22.34.218140,12544,9427,12047,10180,3347,11210,9428,10183,9784,8991,9595,3082
13.22.34.258592,12474,9407,12033,10189,17600,12984,9429,10174,9128,8326,3093,17574
13.22.34.297661,4628,9398,12044,10175,3041,6985,9441,10186,8021,9228,17621,17604
13.22.34.335661,13025,9420,12038,10188,4762,10935,9435,10175,9644,9142,13239,3083
13.22.34.373639,17634,9412,12036,10187,14815,15346,9437,10181,8833,8799,3095,3081
13.22.34.411131,3072,9414,12044,10170,17609,8039,9436,10185,8812,8545,10419,17580
13.22.34.449232,9286,9403,12050,10200,3049,8200,9433,10195,8263,9220,17654,17636
13.22.34.485923,13289,9432,12056,10217,5543,11139,9446,10193,9792,9149,13519,3078
13.22.34.523683,17648,9414,12037,10204,16963,14190,9451,10198,9386,8851,3100,3083
13.22.34.562682,3056,9407,12108,10221,10207,5629,9434,10205,7996,9035,17683,17646
13.22.34.601296,12680,9444,12110,10237,3705,10500,9471,10220,9202,9657,15834,3115
13.22.34.639248,17683,9440,12044,10229,14465,13073,9454,10205,8744,9022,4626,3095
13.22.34.676439,5203,9437,12042,10197,17617,9785,9431,10179,8638,8646,3687,17588
13.22.34.715171,8877,9413,12005,10196,3034,8245,9453,10205,8359,9624,17703,15723
13.22.34.754112,15492,9437,12051,10229,12103,12049,9466,10218,8973,9173,8918,3106
13.22.34.791463,12197,9439,12058,10229,16410,13450,9459,10217,9177,8831,3102,3102
13.22.34.828489,3088,9442,12064,10247,17668,9027,9462,10210,8482,8635,7252,17621
13.22.34.865664,10141,9454,12059,10238,3064,8194,9464,10216,7666,9325,17727,17708
13.22.34.902856,13120,9455,12081,10259,8763,11521,9467,10222,8878,9404,11236,3099
13.22.34.940111,16552,9451,12077,10263,15359,13480,9474,10222,9425,8817,3111,3661
13.22.34.979340,3302,9438,12072,10244,9751,6454,9473,10215,9367,8819,14147,17654
13.22.35.016104,10705,9457,12083,10271,3069,9155,9476,10229,8610,9456,17712,14087
13.22.35.053888,15384,9424,12046,10245,10283,11633,9447,10195,8667,9256,7271,3104
13.22.35.091941,9982,9425,12051,10254,17650,12682,9458,10206,8542,8809,3103,3567
13.22.35.129334,3206,9411,12043,10243,12521,6387,9437,10187,8579,8587,15434,17611
13.22.35.166802,11520,9417,12034,10249,3032,8596,9436,10199,8488,9410,17686,17683
13.22.35.203370,13992,9432,12048,10261,9938,11645,9452,10202,9286,9324,8919,3088
13.22.35.240843,14427,9443,12048,10272,15273,14528,9432,10184,9223,9015,3086,3083
13.22.35.276962,3119,9285,12046,10260,17592,10520,9436,10182,8722,8381,3078,17565
13.22.35.314714,8009,9356,12009,10246,3043,6936,9420,10169,9286,9228,17596,17594
13.22.35.352085,13050,9336,11991,10228,3023,9986,9418,10146,9038,9391,17521,3578
13.22.35.389040,17615,9324,11988,10215,12588,11900,9419,10150,9501,9033,4999,3078
13.22.35.426482,4116,9324,12003,10256,17594,9151,9442,10171,8889,8559,4320,17544
13.22.35.465677,10098,9326,12003,10240,3020,6936,9422,10176,7743,8908,17597,17596
13.22.35.502176,13187,9332,12017,10321,5079,11066,9443,10185,9281,9376,15468,3058
13.22.35.540198,17364,9303,11984,10264,14660,15011,9424,10165,8969,8659,3083,3073
13.22.35.578375,3060,9319,12029,10324,7531,4864,9450,10205,9265,8884,17640,17619
13.22.35.617192,12045,9355,12032,10289,3056,8955,9451,10194,8659,9479,17645,17665
13.22.35.653982,17283,9358,12049,10282,11292,12039,9458,10183,9337,9415,10690,3095
13.22.35.690562,17524,8991,11990,10293,15033,17460,9442,10162,9081,8872,3120,3104
13.22.35.727498,3094,8967,12011,10303,17535,10006,9437,10158,8688,8427,3082,17523
13.22.35.764828,7237,8944,11990,10274,3053,5440,9425,10167,8061,9398,17562,17572
13.22.35.802869,14139,8979,12008,10287,3378,10935,9454,10179,9258,9658,17616,17577
13.22.35.836874,16377,8990,12012,10305,10230,12015,9438,10143,8499,9145,11307,3084
13.22.35.874793,14133,8941,11931,10249,16065,17365,9391,10074,9360,8785,3064,3049
13.22.35.910895,3043,8916,11940,10236,17488,4649,9402,10130,8468,8678,11171,17507
13.22.35.948667,8401,8936,11944,10262,3046,3684,9432,10148,8077,9115,17559,17552
13.22.35.984999,12966,8982,11974,10299,4242,11156,9423,10154,9820,9214,13497,3089
13.22.36.023960,17153,8953,11974,10288,14859,17446,9432,10139,9305,8846,3103,3090
13.22.36.059951,3080,8955,11985,10311,17534,9761,9437,10176,8995,8475,3103,17540
13.22.36.098576,8644,8977,11992,10319,3063,6974,9436,10165,8726,9648,17605,16702
13.22.36.137216,17461,8979,12007,10314,9099,12351,9444,10165,9881,9102,10276,3105
13.22.36.175139,11110,8969,11984,10314,17199,17237,9419,10147,9046,8797,3102,3088
13.22.36.211762,3080,8975,11999,10326,17443,3149,9434,10164,8014,8642,9142,17543
13.22.36.248898,9187,8980,12013,10332,3061,8780,9436,10152,8685,9602,17597,12936
13.22.36.288055,17583,8991,12008,10336,13094,13708,9443,10165,9126,9028,9405,3098
13.22.36.323933,17421,8998,11969,10303,16134,17413,9407,10138,9107,8644,3161,17373
13.22.36.364996,8770,9230,11915,10249,2979,3269,9357,10102,7949,9092,17533,17542
13.22.36.402043,13280,9316,11981,10292,3487,10962,9404,10125,9006,9125,17569,3288
13.22.36.439529,17576,9320,11995,10363,17532,17079,9428,10161,9009,8940,3099,3412
13.22.36.479112,3057,9343,12001,10327,17583,3647,9428,10174,7992,8541,3278,17564
13.22.36.515452,9239,9333,11994,10337,3044,7778,9442,10172,9462,9750,17612,17597
13.22.36.553442,16693,9357,12028,10353,9067,12124,9453,10180,9443,9222,12146,3091
13.22.36.590074,17628,9377,11993,10363,14155,17495,9443,10182,9054,8744,3105,3093
13.22.36.627529,3060,9350,12011,10349,17606,6549,9425,10162,8668,8429,10719,17585
13.22.36.665484,9524,9369,11976,10359,3036,6918,9426,10175,9859,9910,17648,17641
13.22.36.704208,17647,9353,12050,10382,11193,12158,9443,10178,9499,9324,8543,3095
13.22.36.741491,12439,9359,12010,10381,17598,16009,9442,10179,8957,8352,3097,17608
13.22.36.780709,4953,9369,12024,10374,5688,3129,9439,10190,8007,8733,17630,17606
13.22.36.816757,12393,9365,12042,10391,3042,9208,9444,10189,9408,9519,17644,17644
13.22.36.853947,17658,9365,12040,10376,10222,12166,9447,10183,9326,8906,5256,3097
13.22.36.891468,12486,9372,12060,10402,17609,17469,9439,10170,8659,8772,3097,8282
13.22.36.928719,3078,9427,12046,10383,14749,3130,9440,10194,7738,8892,17638,17612
13.22.36.967436,12658,9423,12024,10393,3021,8404,9429,10164,9759,9869,17675,17660
13.22.37.004358,17640,9431,12022,10396,13253,14516,9429,10186,8700,9037,5824,3095
13.22.37.041537,11771,9443,12036,10428,17595,11727,9449,10190,8438,8418,3096,17612
13.22.37.081072,6479,9438,12036,10403,3046,4101,9435,10191,9219,9259,17638,17634
13.22.37.117943,13334,9432,12020,10420,3032,10265,9442,10177,9185,9554,17692,15046
13.22.37.155189,17624,9431,12028,10419,14337,17347,9443,10184,9388,9146,3716,3093
13.22.37.192459,3868,9424,12037,10421,17585,10275,9443,10170,9046,8409,3085,17596
13.22.37.230685,5092,9417,12020,10441,3036,7523,9430,10172,9992,9751,17627,17624
13.22.37.269243,14855,9446,12052,10416,8208,12378,9437,10168,8763,9247,10232,3088
13.22.37.308247,10164,9436,12018,10417,17576,14546,9434,10171,9051,8696,17621,17606
13.22.37.350490,12948,9408,11986,10412,3029,8114,9430,10168,9332,9920,17636,17635
13.22.37.387206,17637,9083,11993,10407,11822,13924,9427,10165,8889,8857,4207,3093
13.22.37.425474,5125,9148,12014,10407,17546,13789,9423,10160,8582,8517,3085,17586
13.22.37.463096,3066,9411,12030,10410,12991,3130,9426,10168,7623,8794,17605,17590
13.22.37.500523,12914,9433,12018,10413,6754,11813,9429,10162,9221,9408,14082,3041
13.22.37.540227,17593,9402,12005,10387,16838,17445,9405,10135,8472,8548,3061,17528
13.22.37.580447,4114,9384,11979,10363,3014,3245,9385,10093,8675,9264,17477,17487
13.22.37.618380,14312,9359,11927,10352,5734,11911,9375,10087,8899,9163,13911,3029
13.22.37.657319,16901,9316,11916,10351,17486,17263,9368,10094,8783,8522,3030,17458
13.22.37.696138,3013,9315,11924,10324,7295,3074,9355,10082,7538,8882,17489,17476
13.22.37.733805,12585,9339,11937,10362,2995,10313,9392,10119,9544,9345,17603,14585
13.22.37.772395,17556,9388,11971,10373,14809,17431,9381,10127,9293,9038,3058,3058
13.22.37.809697,3049,9397,12015,10418,17555,16003,9431,10152,8760,8574,3069,17577
13.22.37.846672,3264,9384,12012,10416,3012,3105,9407,10141,9640,9157,17591,17588
13.22.37.885143,13656,9394,11988,10432,3017,10749,9431,10162,9392,9716,17675,8707
13.22.37.922194,17616,9387,12007,10422,14953,17471,9409,10141,9372,8765,3065,3067
13.22.37.959579,3056,9403,12005,10430,17560,5635,9398,10134,8583,8558,3582,17576
13.22.37.999231,11087,9394,11988,10422,3018,7822,9413,10139,9557,9519,17616,17607
13.22.38.036192,16559,9415,12004,10434,5457,11408,9421,10130,8883,9310,17575,11539
13.22.38.072082,17578,9384,11967,10421,14817,17457,9412,10131,8818,9101,3062,3047
13.22.38.110363,3052,9393,11952,10390,17530,11738,9419,10129,9025,8429,3076,17554
13.22.38.146807,3669,9405,11974,10426,4127,3114,9407,10140,7805,8951,17579,17561
13.22.38.182945,11547,9386,11969,10413,3019,7635,9406,10138,9397,9839,17625,17619
13.22.38.220906,17581,9419,11983,10413,12875,14514,9418,10154,9185,8959,7512,3082
13.22.38.258025,9945,9415,11994,10455,17594,17105,9426,10153,8925,8561,3076,13280
13.22.38.295917,3042,9386,11999,10449,3041,3140,9441,10184,8600,9192,17636,17625
13.22.38.334606,13791,9432,12033,10477,9925,12493,9447,10178,9792,9162,17459,8107
13.22.38.371893,17631,9427,12026,10474,14747,17508,9447,10184,9676,8850,3103,3096
13.22.38.410298,3083,9412,12014,10481,17627,3644,9448,10183,8283,8908,17650,17637
13.22.38.450250,12726,9403,12006,10449,3025,10119,9451,10180,9525,9844,17685,16981
13.22.38.487761,17631,9422,12019,10470,13876,15660,9450,10183,8691,9009,4658,3101
13.22.38.525682,3245,9409,12021,10474,17600,8836,9448,10174,8788,8255,3106,17607
13.22.38.562468,3080,9416,12017,10469,7548,3152,9442,10188,8486,9214,17648,17643
13.22.38.600932,13581,9421,12028,10491,4147,11669,9475,10191,9225,9348,16709,3663
13.22.38.639495,17673,9435,12044,10497,15011,17533,9469,10207,8674,8840,3123,3103
13.22.38.676702,3103,9451,12068,10478,17640,3651,9465,10182,8218,8762,14505,17595
13.22.38.715711,10768,9070,11994,10484,3065,7569,9453,10174,9558,9664,17659,17641
13.22.38.754180,17589,9098,11992,10497,12913,14912,9457,10169,9993,8891,5640,3111
13.22.38.791530,8175,9177,11994,10457,17579,16396,9454,10172,8552,8465,3119,17623
13.22.38.829453,3076,9413,12014,10470,7139,3139,9424,10136,7476,9302,17577,17538
13.22.38.866820,12674,9375,11890,10372,2966,8970,9361,10105,9567,9680,17608,17607
13.22.38.903705,17590,9385,11978,10440,12803,13788,9418,10131,8768,8805,3509,3068
13.22.38.942573,3054,9341,11976,10432,17565,6563,9420,10147,8471,8330,3094,17585
13.22.38.980961,6730,9395,12007,10466,3032,3212,9431,10163,8701,9215,17567,17567
13.22.39.017689,13961,9046,11974,10466,3030,10556,9436,10147,8935,8852,3134,11909
13.22.39.062249,3111,9087,12032,10465,6786,3178,9461,10171,8123,8866,17618,17592
13.22.39.099177,10985,9071,12003,10456,3048,5988,9426,10154,9196,9514,17626,17398
13.22.39.136888,17633,9410,11989,10459,12122,13360,9432,10153,9005,8954,8031,3085
13.22.39.174118,14931,9323,11993,10467,17583,17492,9430,10148,9176,8591,3090,15583
13.22.39.212000,3068,9382,11988,10433,16576,3132,9414,10147,8149,9022,17582,17580
13.22.39.249902,12854,9374,11957,10415,3019,8311,9404,10120,9146,9548,17586,17588
13.22.39.286510,17574,9308,11943,10433,11144,13124,9370,10074,9279,9082,3040,3030
13.22.39.325558,3047,9328,11889,10362,17394,15351,9328,10068,9004,8473,3071,16962
13.22.39.362893,3040,9238,11930,10410,6113,3081,9384,10120,7293,9134,17596,17596
13.22.39.401507,14250,9340,11982,10447,5549,11074,9425,10141,9218,9203,16519,3602
13.22.39.439088,17605,9329,11997,10466,13852,17245,9403,10129,9156,8879,3291,3058
13.22.39.475564,3056,9315,11991,10466,17584,15734,9427,10139,8685,8637,3080,17582
13.22.39.512776,3055,9310,11995,10474,5113,3122,9420,10116,8382,9108,17542,17528
13.22.39.550816,14069,9033,11914,10435,3021,9993,9397,10101,9238,9267,17255,3354
13.22.39.589364,17501,9028,11900,10416,14656,17362,9388,10081,9584,8835,3084,3086
13.22.39.626267,3097,9058,11955,10454,17492,11619,9387,10067,8571,8420,3098,17583
13.22.39.663006,3053,9371,11946,10413,2948,3045,9316,10003,7492,8772,17511,17498
13.22.39.699565,12250,9297,11912,10400,2997,7427,9379,10101,9694,9843,17582,17516
13.22.39.736774,17539,9310,11931,10440,10964,12677,9366,10048,9137,9101,3405,3053
13.22.39.774807,6515,9373,11973,10489,17539,16936,9414,10138,8784,8677,3093,17576
13.22.39.812809,3072,9402,12008,10476,3044,3144,9429,10147,7587,9395,17608,17599
13.22.39.850177,13435,9390,11991,10479,3772,10849,9420,10138,9100,9635,17631,16578
13.22.39.888437,17579,9371,11984,10494,13350,16698,9412,10138,9088,8866,3078,3069
13.22.39.926561,3077,9415,12015,10490,17600,5324,9422,10154,8082,8503,14066,17552
13.22.39.965547,10324,9360,11936,10448,3016,5451,9398,10105,8152,9482,17571,17590
13.22.40.001909,15251,9370,11980,10506,9686,12088,9423,10142,9940,9260,14051,3098
13.22.40.039877,17645,9437,12018,10490,14445,17522,9468,10186,9479,8825,3119,3128
13.22.40.076293,3120,9468,12050,10533,17644,7321,9479,10192,8687,8561,9632,17647
13.22.40.115075,9785,9426,12014,10515,3039,5184,9451,10191,9633,9798,17701,17703
13.22.40.153464,17678,9438,12059,10517,13048,16430,9478,10208,9487,9037,3411,3139
13.22.40.191554,4643,9446,12064,10553,17344,17585,9490,10223,8837,8816,3146,3126
13.22.40.227605,3126,9427,12089,10547,16752,3184,9493,10224,8489,8765,10516,17685
13.22.40.265203,10509,9451,12075,10549,3089,6691,9491,10232,9394,9823,17740,17740
13.22.40.302509,17228,9472,12092,10564,9746,12290,9504,10240,9108,9149,9829,3145
13.22.40.339910,17702,9472,12101,10573,17724,17469,9496,10228,8719,8576,3147,17701
13.22.40.379640,3404,9480,12133,10583,3104,3517,9523,10265,9191,9609,17772,17774
13.22.40.418777,15922,9488,12133,10593,12825,12469,9531,10281,9412,9263,11199,3163
13.22.40.456433,17796,9495,12146,10613,7291,17670,9535,10277,8662,8901,3185,3169
13.22.40.493507,3164,9502,12173,10617,17785,4617,9548,10289,8356,8547,3178,17785
13.22.40.531192,8473,9513,12172,10626,3124,7125,9544,10297,9652,9868,17820,17822
13.22.40.569702,17812,9490,12157,10615,8430,12193,9536,10270,9362,9262,15820,4070
13.22.40.605194,17793,9499,12146,10618,14185,17668,9533,10274,9150,8955,3184,3170
13.22.40.642907,3160,9501,12126,10621,17769,8474,9540,10289,8990,8525,3177,17774
13.22.40.679549,3412,9490,12152,10609,3703,3216,9534,10270,7352,9366,17781,17778
13.22.40.717921,14219,9508,12079,10604,5079,11418,9545,10251,9626,9432,16993,4130
13.22.40.755268,17726,9491,11980,10588,13879,17582,9522,10231,8992,8985,3185,3173
13.22.40.794069,3164,9483,12015,10565,17599,3210,9520,10253,8217,8807,17742,17716
13.22.40.831823,10395,9477,12013,10608,3129,3462,9521,10266,7508,9591,17749,17734
13.22.40.868263,14602,9482,12002,10595,5871,11384,9534,10248,9944,9469,17808,4834
13.22.40.905373,17742,9497,12025,10598,14151,17606,9539,10258,8941,8959,3183,3172
13.22.40.941916,3181,9489,12031,10609,17716,14441,9538,10270,8674,8548,3185,17734
13.22.40.979216,3175,9506,12054,10584,4012,3218,9540,10271,7471,9076,17757,17744
13.22.41.016576,12844,9513,12039,10612,3116,10208,9543,10259,9136,9665,17808,14076
13.22.41.054772,17757,9498,12041,10623,13520,17425,9519,10264,9171,8961,3173,3154
13.22.41.092998,3150,9474,11998,10605,17738,4591,9525,10254,8587,8642,10032,17727
13.22.41.131979,11485,9516,12007,10595,3142,5224,9530,10274,9675,9693,17764,17748
13.22.41.168567,15565,9542,11950,10636,7660,11681,9546,10268,9170,9440,14891,4818
13.22.41.205823,17705,9480,11814,10612,14446,17558,9549,10249,9195,8954,3220,3210
13.22.41.241826,3187,9533,11847,10631,17660,13489,9527,10233,9081,8455,3189,17667
13.22.41.280110,5153,9447,11851,10599,3132,3240,9519,10249,9384,9079,17719,17698
13.22.41.316539,13239,9550,11915,10627,4326,11413,9566,10276,9591,9547,17777,16708
13.22.41.354591,17730,9576,11892,10637,13239,17545,9555,10263,8951,9071,3465,3206
13.22.41.391420,4500,9497,11904,10653,17706,15499,9563,10270,8740,8578,3193,17702
13.22.41.429377,3412,9546,11900,10635,3166,3577,9562,10282,9837,9809,17768,17773
13.22.41.468854,16763,9544,11912,10637,8286,11675,9570,10281,9181,9331,17069,3213
13.22.41.505042,17747,9515,11923,10663,13994,17608,9545,10279,9122,8924,3238,3217
13.22.41.544055,3213,9537,11963,10664,15635,3268,9562,10293,8172,8892,17754,17726
13.22.41.581260,9005,9507,11930,10616,3147,6471,9547,10281,9261,9960,17799,17803
13.22.41.618998,17436,9528,11959,10661,10988,12370,9579,10306,9061,9214,12201,3201
13.22.41.655696,17770,9537,11956,10671,14108,17660,9584,10295,9092,8981,3242,3223
13.22.41.692635,3217,9549,11981,10649,17762,9027,9583,10316,8601,8519,3222,17751
13.22.41.729881,3843,9507,11970,10645,3161,3264,9571,10314,7710,9380,17803,17777
13.22.41.766635,14059,9553,11985,10652,4335,10498,9583,10257,9283,9579,17843,5986
13.22.41.804673,17754,9511,11961,10599,13837,17340,9568,10287,9010,9028,3227,3215
13.22.41.843052,3218,9533,11992,10644,17778,8961,9586,10314,8858,8560,3228,17761
13.22.41.880045,3844,9537,11986,10647,3169,3274,9586,10319,9254,9343,17800,17783
13.22.41.916546,14076,9510,11955,10630,4705,10094,9556,10281,9332,9545,17798,9519
13.22.41.954372,17749,9532,11991,10653,13638,17441,9575,10306,9023,9121,5205,3222
13.22.41.991232,5020,9524,12003,10672,17774,17651,9558,10281,9343,8682,3216,10677
13.22.42.027714,3198,9516,11987,10662,9795,3254,9572,10308,8899,9350,17797,17786
13.22.42.067212,14782,9550,12000,10680,6010,11173,9573,10301,9717,9445,16804,3263
13.22.42.105537,17767,9535,11989,10690,15467,17641,9562,10277,9257,8924,3204,3191
13.22.42.142729,3186,9517,11979,10645,17774,5019,9549,10277,8393,8595,7540,17759
13.22.42.180701,6544,9507,11983,10637,3132,4627,9559,10289,9873,9412,17797,17780
13.22.42.216330,13323,9499,11978,10632,3135,8468,9556,10286,9403,9889,17807,17816
13.22.42.253011,17791,9509,11995,10628,11076,12328,9558,10288,9519,9156,5839,3191
13.22.42.290212,15772,9521,12017,10654,17789,17458,9558,10290,8991,8656,3197,14758
13.22.42.328421,3168,9522,12012,10669,14972,3231,9560,10293,8023,8911,17411,17775
13.22.42.365407,11583,9528,11999,10652,3124,9403,9556,10286,9687,9790,17832,16164
13.22.42.403886,17774,9516,11998,10646,12475,14928,9556,10294,9263,9183,6024,3184
13.22.42.440691,10031,9523,11996,10634,17742,15804,9550,10275,8865,8564,3185,17752
13.22.42.479217,3157,9522,12007,10649,3235,3230,9547,10287,8467,9371,17795,17783
13.22.42.516753,14223,9511,12010,10622,8668,11718,9550,10281,9109,9392,17788,6685
13.22.42.554959,17778,9501,12016,10659,14027,17670,9555,10281,8885,8982,3197,3179
13.22.42.592524,3176,9510,12009,10644,17760,8063,9559,10277,9013,8524,3184,17756
13.22.42.630127,4977,9493,12017,10650,3122,8836,9544,10273,8470,9824,17816,17819
13.22.42.669851,17782,9504,11993,10644,12399,16247,9551,10279,9311,9112,6560,3184
13.22.42.707014,12646,9498,12006,10637,17778,17643,9541,10272,8805,8799,3187,4966
13.22.42.744371,3161,9493,12000,10633,17040,3362,9535,10274,8230,8887,17759,17741
13.22.42.781426,10316,9471,11976,10605,3116,9173,9536,10252,9239,9704,17788,15066
13.22.42.820724,17727,9472,11955,10593,13485,16627,9534,10251,9479,9090,5093,3163
13.22.42.857011,12702,9480,11966,10582,17399,17607,9522,10239,8810,8755,3173,5276
13.22.42.893746,3157,9477,11967,10579,15857,3215,9527,10256,8449,8748,15657,17717
13.22.42.931370,10002,9461,11937,10591,3116,6502,9518,10240,8098,9901,17751,17758
13.22.42.969537,17713,9451,11951,10612,11602,13700,9522,10233,9484,9030,4427,3159
13.22.43.007141,10995,9444,11947,10572,17698,16756,9513,10227,8576,8535,3154,17672
13.22.43.045492,3128,9429,11927,10561,3081,3174,9480,10202,8034,9225,17644,17627
13.22.43.082808,13120,9436,11888,10554,3055,9592,9467,10150,8986,9573,17622,16863
13.22.43.120096,17558,9436,11812,10484,12141,14747,9455,10149,9635,8999,3691,3113
13.22.43.157420,7065,9329,11849,10511,17554,15729,9446,10146,9012,8666,3129,6328
13.22.43.193792,3115,9378,11889,10545,15809,3178,9485,10197,8554,8780,16477,17659
13.22.43.231826,11126,9390,11917,10564,3084,8500,9499,10204,8043,9713,17702,17714
13.22.43.269658,17672,9402,11910,10581,13401,17293,9497,10208,9259,9041,4073,3143
13.22.43.307624,5022,9382,11898,10554,17616,17502,9468,10167,8913,8736,3139,13614
13.22.43.344926,3125,9406,11921,10573,6879,3194,9501,10214,7714,8969,17692,17678
13.22.43.382609,12980,9420,11927,10580,3089,8259,9505,10224,9563,9866,17715,17725
13.22.43.419432,17694,9420,11925,10574,11997,15976,9512,10226,9127,9121,5612,3159
13.22.43.456975,11935,9404,11926,10600,16193,17556,9507,10213,9254,8839,3159,3137
13.22.43.493895,3133,9412,11948,10569,15005,3202,9496,10201,8673,8590,3349,17643
13.22.43.530724,8430,9400,11902,10563,3089,6400,9481,10175,7913,9867,17634,17641
13.22.43.568208,16105,9391,11869,10505,9255,12267,9449,10128,9580,9556,14218,3062
13.22.43.605551,17365,9201,11783,10458,15013,17379,9404,10069,9100,8832,2981,2965
13.22.43.642457,2942,9151,11553,10263,17264,8403,9268,9944,8668,8140,3042,17353
13.22.43.680114,6173,9194,11621,10325,2939,3190,9288,9936,7759,9276,17284,17235
13.22.43.717122,14530,9214,11623,10295,6087,11575,9389,10053,9774,9193,17483,8751
13.22.43.753967,17375,9296,11671,10381,11078,13527,9292,9918,9695,8981,4772,3039
13.22.43.790677,6634,9255,11680,10397,17490,17057,9418,10122,9065,8644,3085,17483
13.22.43.829627,4661,9359,11841,10491,3050,3883,9442,10131,9564,9355,17566,17575
13.22.43.867554,14504,9360,11861,10506,7731,11472,9476,10170,9804,9296,14908,3134
13.22.43.905605,17656,9406,11892,10554,16700,17530,9503,10209,9407,8862,3167,3146
13.22.43.941830,3130,9433,11924,10559,17667,12122,9486,10180,8877,8472,3139,17635
13.22.43.979554,3880,9390,11915,10547,3987,3190,9490,10210,7698,9314,17673,17672
13.22.44.017362,14453,9424,11915,10541,7194,11943,9510,10204,9966,9274,15552,3152
13.22.44.054896,17692,9445,11946,10572,13537,17568,9515,10237,9105,8881,3177,3163
13.22.44.091585,3163,9435,11960,10606,17689,7703,9526,10237,8838,8516,3160,17691
13.22.44.130384,7658,9443,11952,10555,3116,4852,9513,10224,8520,9828,17725,3155
13.22.44.172665,17599,9445,11922,10533,16110,17538,9503,10205,9302,8845,3155,3131
13.22.44.210549,3135,9427,11895,10497,15040,3156,9426,10110,7595,8828,17536,17596
13.22.44.248660,12237,9421,11909,10539,3105,6510,9516,10244,8177,9736,17729,17736
13.22.44.284960,16713,9481,11973,10651,12435,16747,9552,10273,9874,9020,3196,3193
13.22.44.325113,3188,9488,11999,10628,17742,8995,9562,10279,8801,8551,3201,17739
13.22.44.363606,7373,9509,12005,10666,3156,3701,9564,10295,9568,9381,17772,17765
13.22.44.400526,14335,9480,11991,10650,9068,12076,9553,10273,9541,9388,15621,3194
13.22.44.438207,17752,9473,11982,10629,14065,17630,9561,10269,9736,8848,3209,3189
13.22.44.476872,3183,9474,11997,10602,14497,3239,9549,10266,8224,8938,17752,17733
13.22.44.514526,10553,9508,11991,10644,3140,3966,9562,10261,8061,9704,17745,17740
13.22.44.551154,15770,9491,11965,10622,7093,11847,9545,10240,9577,9416,17300,3178
13.22.44.588483,17734,9462,11966,10624,13958,17585,9534,10246,9375,8895,3187,3176
13.22.44.625424,3164,9466,11970,10565,17686,15793,9528,10230,9035,8492,3183,17691
13.22.44.662410,3386,9458,11967,10560,3121,3229,9538,10249,7814,9682,17724,17731
13.22.44.701228,16215,9468,11995,10601,12854,14843,9533,10231,9341,9176,7382,3179
13.22.44.739765,14932,9464,11951,10604,17182,17572,9530,10238,8844,8857,3191,4301
13.22.44.777231,3170,9458,11975,10577,13907,3223,9536,10248,7893,8952,17722,17699
13.22.44.814758,11172,9469,11956,10548,3127,7668,9523,10223,9865,9702,17743,17740
13.22.44.852536,17700,9465,11942,10583,12749,15783,9524,10225,9219,9073,3931,3158
13.22.44.890787,4397,9456,11949,10576,17680,15671,9521,10243,8759,8464,3763,17691
13.22.44.929452,4244,9456,11951,10602,4061,3227,9527,10245,8878,9265,17736,17726
13.22.44.966905,14477,9481,11965,10561,4036,10718,9541,10233,9568,9517,17780,14300
13.22.45.002855,17708,9481,11977,10619,12276,13945,9540,10249,9188,9089,7175,3179
13.22.45.039119,17754,9467,11980,10623,16927,17616,9547,10260,9222,8863,3197,3178
13.22.45.076977,3175,9473,12006,10652,17389,3226,9539,10263,8139,8869,17767,17748
13.22.45.114737,11708,9477,11995,10630,3136,9067,9553,10252,9291,9795,17797,17749
13.22.45.152896,17739,9476,12009,10647,10625,12409,9551,10271,9284,9242,9606,3189
13.22.45.188922,17779,9487,11998,10592,16040,17614,9546,10277,9304,8902,3200,3192
13.22.45.225455,3178,9477,12003,10624,16923,3229,9550,10265,8421,8762,15935,17736
13.22.45.264939,11904,9481,11997,10623,3129,7852,9542,10254,10146,9840,17787,17710
13.22.45.303112,17731,9482,11991,10602,13137,17086,9553,10250,9040,9024,3229,3187
13.22.45.340771,3817,9479,11973,10604,17737,17602,9555,10256,8715,8716,3196,17723
13.22.45.378277,3177,9482,11974,10649,3139,3237,9545,10259,7822,9184,17739,17724
13.22.45.416349,14060,9492,11970,10605,4940,11220,9543,10257,9736,9398,17504,5382
13.22.45.454537,17717,9477,11956,10597,14040,17600,9538,10242,8812,8982,3194,3176
13.22.45.492235,3168,9474,11954,10646,17707,5918,9535,10262,8745,8533,3190,17713
13.22.45.529134,3692,9470,11966,10583,3139,3301,9548,10267,9695,9826,17766,17763
13.22.45.567973,16835,9471,11981,10651,5497,11515,9564,10262,9557,9338,13557,3195
13.22.45.605013,17770,9493,11980,10627,13907,17630,9554,10265,9342,8983,3205,3188
13.22.45.641387,3198,9492,11997,10625,17732,16400,9560,10276,8815,8697,3202,17743
13.22.45.679186,3856,9477,11984,10621,3898,3253,9573,10278,7850,9276,17771,17770
13.22.45.716895,14604,9495,11982,10600,5500,11584,9571,10275,9841,9366,15363,4986
13.22.45.754582,17775,9485,11997,10673,13897,17633,9562,10275,9389,8872,3208,3201
13.22.45.792745,3198,9499,12013,10656,17749,5709,9558,10277,8776,8550,3208,17751
13.22.45.829481,4516,9487,11995,10635,3154,3782,9559,10288,7975,9563,17773,17780
13.22.45.866845,14651,9505,11998,10650,5565,11445,9566,10273,10120,9363,13254,3194
13.22.45.905449,17782,9502,11991,10629,15709,17630,9568,10280,9056,8847,3210,3191
13.22.45.943118,3186,9490,12011,10692,17752,5534,9555,10277,8913,8557,3204,17751
13.22.45.978820,3382,9490,12003,10655,6025,3249,9561,10286,7822,9061,17780,17761
13.22.46.015615,13051,9496,11997,10659,3154,8063,9578,10285,9646,9883,17798,17800
13.22.46.051754,17813,9500,11998,10649,10219,12492,9574,10286,9241,9186,5873,3208
13.22.46.089986,10397,9513,11995,10692,17770,17671,9569,10280,8747,8737,3215,17765
13.22.46.129239,4887,9512,12014,10671,3274,3258,9590,10302,7998,9773,17818,17819
13.22.46.167378,15473,9517,12006,10666,5237,10917,9592,10302,9342,9454,16539,8909
13.22.46.204193,17803,9504,12026,10686,13970,17676,9584,10296,9083,8935,3234,3207
13.22.46.244481,3196,9523,12042,10681,3173,3269,9601,10315,7721,9394,17814,17822
13.22.46.282907,14244,9533,12031,10714,4116,11003,9606,10313,9588,9536,17850,9066
13.22.46.320762,17821,9521,12040,10703,13808,17715,9600,10314,9741,9011,3235,3220
13.22.46.358220,3219,9525,12055,10700,17803,17694,9607,10307,9281,8763,3230,17813
13.22.46.394443,3200,9520,12053,10727,4960,3269,9597,10334,7506,9320,17828,17823
13.22.46.433427,14184,9533,12047,10695,8503,12263,9611,10312,9999,9348,3890,3223
13.22.46.473302,9635,9538,12054,10674,17704,17694,9598,10319,9290,8956,3243,5955
13.22.46.509964,3207,9524,12055,10683,17362,3274,9599,10326,8407,8912,17840,17820
13.22.46.547974,11436,9535,12045,10700,3177,8737,9603,10320,8813,9825,17876,12451
13.22.46.586600,17815,9532,12053,10738,13280,17361,9611,10315,9912,9063,3319,3229
13.22.46.623945,3742,9536,12054,10755,17816,17702,9601,10328,9093,8834,3239,15859
13.22.46.661172,3212,9528,12064,10673,5190,3271,9601,10331,9406,9454,17834,17835
13.22.46.699587,14352,9541,12044,10682,4128,10007,9601,10316,8870,9604,17890,17153
13.22.46.735936,17817,9535,12060,10703,12523,14415,9597,10325,9182,9234,7172,3227
13.22.46.772835,14564,9532,12059,10718,17805,15639,9600,10313,9274,8837,3234,16888
13.22.46.810607,3212,9525,12070,10740,17288,3870,9599,10322,8354,8701,7409,17809
13.22.46.846675,7673,9528,12053,10741,3171,5958,9595,10317,7952,9909,17851,17851
13.22.46.885182,17848,9521,12053,10704,11288,12681,9596,10330,9783,9235,10659,3221
13.22.46.922627,14905,9531,12050,10723,17054,17691,9595,10316,9188,8904,3233,3208
13.22.46.960108,3220,9529,12061,10711,17322,3463,9587,10313,8387,8627,8496,17807
13.22.46.997150,9508,9518,12038,10727,3160,4121,9594,10311,7777,9492,17831,17825
13.22.47.033383,14474,9532,12046,10688,4281,10921,9595,10301,9309,9394,17544,5111
13.22.47.070512,17820,9533,12045,10709,13470,17274,9586,10303,9269,9015,3229,3210
13.22.47.108889,3213,9519,12043,10734,17808,3922,9593,10305,8722,8676,7060,17792
13.22.47.146454,7285,9517,12037,10709,3171,5209,9576,10292,9326,9892,17832,17825
13.22.47.183245,14024,9511,12032,10695,7828,12070,9588,10288,9041,9313,12622,3213
13.22.47.221473,17813,9506,12034,10709,15703,17680,9582,10291,9354,8812,3214,3202
13.22.47.259571,3180,9514,12036,10693,15765,3250,9573,10302,7770,9025,17798,17785
13.22.47.297113,9647,9502,12016,10703,3142,7795,9572,10274,8384,9893,17818,16383
13.22.47.336231,17776,9498,12019,10670,12361,15861,9563,10290,9315,9210,8986,3185
13.22.47.375155,3189,9492,12001,10683,17749,7455,9549,10263,8654,8648,6139,17718
13.22.47.413522,8764,9463,11972,10649,3111,7341,9538,10231,8600,9818,17751,17760
13.22.47.452500,17710,9471,11964,10661,13336,16887,9539,10228,9814,8991,3187,3178
13.22.47.491489,3178,9494,11987,10682,17726,8964,9559,10252,8866,8547,3327,17727
13.22.47.529757,7698,9485,11986,10665,3137,3877,9548,10259,9799,9768,17761,17772
13.22.47.567601,16595,9510,11994,10681,7253,11890,9569,10273,9742,9308,16513,3545
13.22.47.605069,17801,9511,12024,10710,14832,17643,9580,10279,9615,8900,3218,3194
13.22.47.642793,3198,9504,12042,10696,16339,3258,9583,10300,8643,8673,9881,17785
13.22.47.679933,9202,9510,12038,10709,3157,3263,9586,10303,7958,9437,17817,17809
13.22.47.716158,14141,9522,12046,10730,3396,10543,9585,10299,8605,9849,17836,17385
13.22.47.751909,17809,9516,12040,10714,12702,16558,9587,10313,9314,9086,3218,3208
13.22.47.792269,3208,9516,12050,10696,17797,9912,9593,10294,8939,8754,3223,12168
13.22.47.826830,3198,9520,12062,10710,15792,3257,9591,10314,8290,8803,14824,17796
13.22.47.864026,10542,9506,12054,10708,3161,6983,9584,10308,8276,9927,17831,17831
13.22.47.900933,16921,9519,12054,10730,14724,17708,9594,10310,8940,8630,3219,17806
13.22.47.945233,3727,9512,12063,10712,3164,3264,9592,10312,7330,9380,17829,17827
13.22.47.983200,14416,9531,12062,10727,3821,10707,9594,10302,9008,9448,16738,3671
13.22.48.020539,17814,9512,12073,10732,13014,17539,9598,10299,9260,9108,3440,3214
13.22.48.057248,3221,9510,12065,10750,17809,17688,9592,10303,8809,8717,3224,12372
13.22.48.093954,3204,9508,12060,10716,11546,3269,9591,10313,8932,8848,17054,17808
13.22.48.131119,11770,9511,12050,10700,3160,7591,9592,10308,8220,9882,17872,17877
13.22.48.168734,17840,9512,12063,10707,11156,12594,9595,10303,9388,9224,7156,3214
13.22.48.206036,12940,9517,12069,10752,17825,17351,9607,10302,9388,8826,3223,13390
13.22.48.243703,3201,9508,12078,10707,15926,3256,9590,10316,8036,8814,14080,17813
13.22.48.279615,7818,9504,12077,10699,3170,4820,9593,10314,8286,9859,17852,17857
13.22.48.318099,17866,9514,12068,10729,11080,12996,9595,10319,9931,9130,4820,3217
13.22.48.355943,13249,9526,12070,10699,17796,17715,9599,10318,9082,8825,3229,5088
13.22.48.393069,3211,9522,12088,10701,12230,3265,9594,10324,7600,9076,17844,17831
13.22.48.430866,11390,9510,12073,10684,3157,9925,9603,10305,9163,9742,17885,17878
13.22.48.468972,17837,9520,12082,10704,11914,13940,9595,10317,9619,9167,4317,3224
13.22.48.506426,7162,9521,12080,10745,17819,16335,9601,10313,9228,8662,3228,17815
13.22.48.544964,3623,9523,12093,10713,4065,3272,9601,10328,7284,9236,17849,17844
13.22.48.582266,14404,9546,12090,10749,3370,10356,9603,10315,9292,9684,17896,10924
13.22.48.620367,17837,9522,12088,10728,13863,17721,9601,10327,9466,8903,3229,3217
13.22.48.659597,3214,9545,12093,10749,17716,3333,9603,10326,8386,8689,3746,17832
13.22.48.695708,6431,9528,12094,10730,3168,4254,9609,10332,7463,9487,17841,17839
13.22.48.732163,13758,9552,12090,10729,3373,9455,9615,10312,9256,9772,17884,17661
13.22.48.768632,17838,9538,12089,10742,12288,14873,9606,10338,9849,9097,4257,3211
13.22.48.808359,3214,9525,12105,10726,17839,11052,9610,10310,8912,8591,3214,17818
13.22.48.844865,3567,9526,12080,10727,3157,3300,9592,10314,7190,9243,17836,17832
13.22.48.881815,13396,9524,12083,10727,3143,9994,9599,10305,9414,9458,17724,8038
13.22.48.920016,17832,9523,12095,10739,13008,17453,9594,10324,9072,9066,3465,3216
13.22.48.956261,7760,9524,12081,10723,17811,16583,9603,10307,9170,8592,3213,17825
13.22.48.995244,4658,9533,12110,10753,3169,3591,9599,10319,7862,9311,17864,17873
13.22.49.032405,14000,9540,12097,10746,3737,10907,9619,10333,9707,9618,17933,8626
13.22.49.070249,17870,9536,12108,10776,13771,17753,9613,10338,9802,8970,3240,3218
13.22.49.108583,3218,9534,12140,10760,17877,7599,9622,10352,8559,8663,5558,17870
13.22.49.146402,8975,9542,12149,10783,3167,5253,9620,10352,9700,9716,17898,17882
13.22.49.183175,14459,9553,12133,10779,4594,11012,9622,10328,9227,9554,17819,5278
13.22.49.220307,17887,9545,12125,10785,13701,17763,9615,10347,9526,9068,3304,3224
13.22.49.256133,8833,9542,12120,10754,17857,16980,9619,10341,9418,8670,3244,16871
13.22.49.294149,3210,9532,12126,10758,3173,3268,9617,10348,9259,9262,17883,17877
13.22.49.331954,13110,9535,12131,10764,3171,8634,9617,10332,8408,9735,17928,15834
13.22.49.369390,17871,9538,12140,10762,13296,16948,9619,10343,9103,9115,3907,3229
13.22.49.406884,3610,9546,12124,10780,17870,17128,9622,10340,9313,8730,3234,17857
13.22.49.444513,3311,9529,12142,10776,3611,3273,9620,10348,9051,9411,17886,17883
13.22.49.482111,13674,9545,12134,10789,3170,10110,9618,10328,8691,9832,17915,17806
13.22.49.518893,17860,9523,12116,10749,12590,17531,9601,10331,9207,9063,3218,14712
13.22.49.560284,3194,9518,12109,10760,15865,3269,9601,10333,8280,8964,17878,17870
13.22.49.597335,11542,9535,12125,10757,3160,5390,9611,10330,7767,9715,17880,17874
13.22.49.632679,13838,9535,12128,10766,8803,12194,9617,10340,9833,9462,17941,5002
13.22.49.670434,17882,9526,12124,10764,13005,17401,9615,10335,9625,9137,5138,3215
13.22.49.706312,6788,9526,12116,10749,15808,17734,9604,10318,9539,8927,3229,3201
13.22.49.742963,3202,9522,12122,10763,13232,3260,9603,10324,7658,9074,17877,17855
13.22.49.780443,11030,9526,12119,10776,3165,4743,9609,10326,9247,9765,17890,17887
13.22.49.816819,15478,9538,12108,10772,6053,11627,9607,10347,10125,9381,13563,3213
13.22.49.854566,17891,9535,12101,10762,13977,17740,9597,10318,8991,8931,3224,3205
13.22.49.892346,3194,9528,12120,10781,17850,6575,9613,10333,9116,8738,3222,17842
13.22.49.928358,4666,9537,12117,10763,3201,3262,9605,10337,7745,9456,17877,17870
13.22.49.966379,14257,9534,12113,10754,8154,11763,9606,10328,9487,9359,9904,3203
13.22.50.005255,16290,9524,12100,10750,16977,17722,9600,10319,8954,8953,3219,3203
13.22.50.041803,3190,9534,12104,10758,17794,4755,9598,10322,8602,8782,9903,17836
13.22.50.078896,6551,9515,12101,10757,3157,4292,9603,10324,8100,9650,17875,17870
13.22.50.116505,14528,9543,12124,10755,6276,11191,9606,10315,9319,9485,17922,12568
13.22.50.152613,17861,9535,12127,10763,11795,13935,9600,10327,9922,9185,6237,3207
13.22.50.189417,8205,9531,12108,10751,17847,17445,9600,10329,9257,8808,3221,10437
13.22.50.226357,3200,9521,12121,10753,17779,4924,9608,10329,9495,8684,3204,17847
13.22.50.262005,5957,9528,12121,10755,4351,3266,9602,10342,7971,9157,17866,17853
13.22.50.298580,13506,9538,12111,10758,5943,11570,9612,10337,9177,9398,14371,3212
13.22.50.337266,17877,9532,12132,10779,13093,17732,9612,10331,9523,8940,3229,3208
13.22.50.375878,3206,9531,12108,10764,12946,3261,9604,10335,8043,9050,17864,17842
13.22.50.414000,11595,9541,12110,10758,3163,6333,9603,10322,8320,9826,17876,17886
13.22.50.451041,17887,9544,12114,10763,8115,11730,9612,10326,9074,9400,17351,4553
13.22.50.487198,17864,9537,12106,10759,13744,17709,9600,10325,9031,8917,3228,5277
13.22.50.526312,3197,9528,12121,10776,14705,3285,9628,10355,8291,8901,16411,17872
13.22.50.563949,11755,9563,12126,10792,3172,7885,9623,10326,9385,9924,17871,17882
13.22.50.601375,17866,9534,12137,10777,11927,14755,9621,10324,9373,9231,9026,3229
13.22.50.638283,17355,9535,12119,10775,17823,17739,9616,10349,8661,8891,3238,3224
13.22.50.675106,3229,9549,12115,10779,17841,12730,9619,10329,9235,9699,17897,17750
13.22.50.718275,17865,9556,12128,10763,10870,12959,9616,10334,10101,9218,9296,3229
13.22.50.755178,16217,9550,12138,10759,17813,17717,9612,10323,9508,8874,3241,9503
13.22.50.792840,3205,9552,12116,10757,17457,3267,9604,10323,8661,8710,3637,17810
13.22.50.829024,7333,9533,12126,10758,3164,3379,9602,10321,8156,9706,17847,17848
13.22.50.866988,16453,9538,12081,10748,9076,12381,9609,10314,10083,9304,11444,3219
13.22.50.904308,17860,9548,12079,10770,13699,17693,9602,10312,9678,8918,3241,3219
13.22.50.941534,3222,9536,12119,10773,17790,4132,9606,10317,9115,8644,3225,17805
13.22.50.977720,3409,9530,12067,10741,3161,3410,9598,10335,7905,9574,17826,17830
13.22.51.015331,13769,9539,12108,10759,3294,9841,9605,10307,9033,9698,17870,16378
13.22.51.052624,17809,9520,12087,10748,12048,13953,9589,10300,9221,9201,5110,3203
13.22.51.089398,6139,9517,12063,10738,17757,15280,9555,10254,9215,8660,3177,17725
13.22.51.127521,3202,9469,12046,10685,10111,3198,9509,10224,7731,9173,17642,17619
13.22.51.164180,11994,9355,11793,10471,3013,7966,9415,10046,8626,9518,17538,13054
13.22.51.202959,17379,9322,11781,10490,13131,17304,9372,10043,9769,8763,3042,3040
13.22.51.241131,3020,9331,11787,10505,17444,5772,9506,10227,9365,8464,4198,17677
13.22.51.278310,5043,9437,11951,10628,3088,3177,9473,10156,8941,9498,17555,17554
13.22.51.315638,13605,9354,11832,10495,8150,11926,9416,9994,8957,9063,11865,3122
13.22.51.354094,17631,9405,11938,10606,14585,17384,9352,10015,9128,8758,3018,3006
13.22.51.391753,3043,9319,11772,10460,17415,4131,9398,10013,8125,8394,6728,17516
13.22.51.429371,9087,9390,11889,10572,3024,6071,9444,10066,9371,9912,17411,17437
13.22.51.466174,14375,9275,11770,10456,4572,10856,9325,10020,8749,9294,17001,9574
13.22.51.503113,17498,9355,11824,10524,13441,17308,9344,10121,9430,8580,3132,3125
13.22.51.541884,3118,9394,11899,10540,16463,3147,9459,10137,8479,8683,8816,17583
13.22.51.578853,7460,9413,11947,10642,3094,5672,9533,10242,7951,9822,17727,17732
13.22.51.615815,14015,9489,12024,10693,7350,11247,9555,10252,9334,9398,17801,14394
13.22.51.652102,17734,9481,12024,10694,13181,17599,9516,10231,9327,8933,3167,3146
13.22.51.691474,3162,9464,12028,10677,17699,9608,9554,10251,8611,8528,3174,17720
13.22.51.728595,6862,9488,12034,10697,3126,3912,9546,10255,9301,9758,17766,17768
13.22.51.766878,16570,9498,12034,10701,9231,12292,9536,10250,9907,9218,10594,3158
13.22.51.803848,17732,9476,12022,10711,13095,17292,9533,10244,9205,8980,3164,3169
13.22.51.839705,3273,9492,12042,10713,17737,10317,9557,10274,8913,8568,3195,17739
13.22.51.877667,3515,9495,12059,10713,3131,4357,9566,10278,9191,9419,17779,17775
13.22.51.915938,14298,9487,12040,10692,9299,12435,9573,10273,9620,9242,10408,3187
13.22.51.954683,17191,9500,12043,10717,17586,17634,9552,10251,8898,8856,3203,3182
13.22.51.991209,3192,9502,12078,10733,17162,3313,9567,10284,8429,8780,17784,17766
13.22.52.030577,12268,9508,12060,10734,3143,7369,9590,10275,8383,9925,17812,17808
13.22.52.067699,17783,9507,12065,10717,11523,13914,9569,10286,9081,9129,5759,3193
13.22.52.105582,8919,9507,12072,10743,17787,17503,9583,10300,8642,8545,3201,17777
13.22.52.144315,4069,9522,12075,10724,3758,3244,9585,10292,8131,9376,17794,17790
13.22.52.182256,13972,9525,12075,10735,6310,10997,9575,10277,9477,9500,17848,12400
13.22.52.218991,17759,9507,12061,10723,13004,17585,9566,10261,8815,8925,3192,3179
13.22.52.257999,3173,9499,12030,10704,17745,5783,9545,10256,8211,8514,3164,17752
13.22.52.295630,8451,9491,12052,10722,3134,7175,9570,10283,8237,9963,17810,17805
13.22.52.333359,16587,9501,12060,10733,8163,12164,9564,10272,9857,9558,17779,6996
13.22.52.369625,17734,9486,12020,10692,13047,17600,9529,10228,9153,8989,3163,3158
13.22.52.406618,3155,9459,11996,10661,17657,11869,9524,10241,9037,8572,3184,17692
13.22.52.443108,3168,9478,12088,10730,16926,3311,9565,10301,8460,8621,14404,17802
13.22.52.479382,9966,9455,12081,10743,3144,7310,9581,10288,7824,9990,17819,17813
13.22.52.516719,16653,9502,12088,10747,11503,13774,9588,10305,9892,9153,3804,3205
13.22.52.555740,5874,9526,12112,10758,17823,17629,9589,10313,8706,8644,3210,17803
13.22.52.593326,3181,9510,12075,10755,9119,3256,9588,10324,7827,8905,17805,17787
13.22.52.630369,12129,9502,12076,10745,3123,8990,9565,10282,9209,9802,17832,17842
13.22.52.667910,17807,9512,12075,10733,10346,12522,9564,10285,9706,9246,7980,3199
13.22.52.704217,17757,9511,12092,10751,13395,17687,9584,10300,9372,9005,3207,3197
13.22.52.741079,3200,9512,12101,10751,17796,5237,9577,10304,8479,8523,3204,17778
13.22.52.780626,12934,9524,12080,10740,3151,10014,9578,10298,8854,9791,17843,17835
13.22.52.817513,17824,9523,12094,10746,11641,13205,9595,10290,9009,9208,8482,3197
13.22.52.854345,17466,9523,12097,10751,17807,17658,9581,10301,8597,8738,3184,10552
13.22.52.892596,3159,9491,12091,10721,16999,3221,9550,10271,8976,8629,11856,17770
13.22.52.929030,9298,9480,12057,10726,3110,5288,9551,10272,9644,9949,17802,17815
13.22.52.966996,17717,9491,12069,10725,11094,13083,9556,10275,9070,9096,6205,3178
13.22.53.005092,11672,9512,12083,10743,17281,17662,9554,10275,9214,8906,3179,3161
13.22.53.041154,3162,9507,12072,10730,17777,3573,9560,10279,8837,8477,3165,17768
13.22.53.077838,5244,9499,12099,10729,3116,3215,9562,10283,8898,9477,17813,17813
13.22.53.115493,14105,9516,12069,10729,8759,12157,9552,10268,9339,9300,12635,3168
13.22.53.153283,17809,9510,12086,10727,12905,16595,9564,10287,9449,9031,4612,3171
13.22.53.188823,6769,9530,12081,10740,17736,17672,9563,10283,9127,8830,3195,17787
13.22.53.226585,3157,9521,12122,10744,12203,3228,9575,10304,8929,8996,17816,17804
13.22.53.263531,12072,9533,12081,10756,3125,8368,9566,10289,8588,9865,17851,17854
13.22.53.301602,17805,9533,12083,10743,12330,16044,9571,10287,9812,9047,3387,3178
13.22.53.339208,3801,9530,12098,10758,17790,16151,9567,10286,9209,8506,3183,17793
13.22.53.378383,7829,9526,12083,10762,3121,3227,9572,10290,9142,9500,17811,17811
13.22.53.415516,14335,9530,12080,10737,9629,12077,9563,10296,9666,9275,10329,3189
13.22.53.454855,13100,9523,12090,10764,17609,17689,9563,10294,9232,8849,3192,3413
13.22.53.491746,3164,9531,12095,10764,16720,3459,9563,10295,8120,8764,17821,17798
13.22.53.529021,9639,9519,12091,10759,3130,4759,9575,10299,9627,10009,17842,17860
13.22.53.568846,17810,9560,12107,10782,13573,17704,9586,10314,8961,9000,3220,3199
13.22.53.607710,3205,9539,12120,10780,17822,3687,9596,10336,8064,8683,12812,17804
13.22.53.645959,10313,9537,12092,10769,3157,4692,9578,10296,8861,9942,17814,17800
13.22.53.682575,15415,9529,12100,10748,9976,12547,9563,10275,9394,9334,13851,6329
13.22.53.719916,17744,9486,12005,10652,13026,17319,9381,10005,9590,8968,3112,3101
13.22.53.756422,3079,9410,11908,10587,17541,16499,9472,10153,8770,8225,3115,17560
13.22.53.793290,3055,9331,11890,10590,4529,3145,9449,10122,8277,8999,17496,17462
13.22.53.829703,11468,9375,11934,10628,3078,3574,9483,10183,9205,9645,17695,17692
13.22.53.865139,13864,9445,12005,10670,8568,12158,9542,10250,9428,9381,11033,3182
13.22.53.904602,14606,9489,12074,10730,16021,17637,9559,10270,8852,8795,3189,12586
13.22.53.943060,3171,9481,12067,10717,3476,3219,9546,10262,7397,9213,17736,17731
13.22.53.981245,13586,9481,12031,10691,6481,11604,9542,10235,9515,9356,16254,3163
13.22.54.019813,17716,9466,12015,10684,13659,17543,9513,10200,9416,8920,3147,3123
13.22.54.058045,3117,9419,11965,10642,17613,12322,9474,10161,8698,8526,3133,17643
13.22.54.094836,7610,9432,12001,10660,3091,3539,9518,10228,9409,9888,17706,17739
13.22.54.133605,17727,9463,12019,10672,10980,13637,9547,10254,9869,9150,7537,3165
13.22.54.171556,11024,9474,12024,10695,17701,16922,9532,10224,8774,8785,3159,10354
13.22.54.209156,3113,9382,11904,10543,4953,3104,9402,10112,7813,8568,17641,17641
13.22.54.246518,11715,9436,11981,10649,3080,4743,9475,10159,8962,9972,17679,17699
13.22.54.282860,16213,9466,11991,10672,9850,12099,9528,10214,9551,9149,7904,3159
13.22.54.321220,14356,9474,12021,10685,17449,17589,9536,10245,9051,8689,3185,10020
13.22.54.359188,3161,9482,12088,10720,16007,3228,9564,10284,8350,8930,17774,17763
13.22.54.396356,11677,9500,12067,10743,3261,9295,9568,10273,9377,9775,17835,16023
13.22.54.435038,17789,9509,12085,10748,13312,17677,9577,10299,9934,8935,3215,3202
13.22.54.472824,3182,9532,12127,10762,17812,12246,9589,10323,8646,8550,3215,17808
13.22.54.510071,3304,9523,12130,10759,4606,3259,9594,10320,7823,9004,17815,17806
13.22.54.547335,13204,9504,12099,10758,3130,9598,9589,10310,8956,9987,17840,17855
13.22.54.584363,17814,9522,12110,10766,11850,13304,9599,10314,9836,9246,8064,3204
13.22.54.621159,14347,9518,12113,10774,17824,17435,9595,10306,9274,8656,3214,17530
13.22.54.659617,3183,9523,12129,10761,5573,3226,9575,10302,7529,9126,17832,17824
13.22.54.697158,12961,9538,12122,10772,3146,8264,9592,10326,9573,10018,17840,17837
13.22.54.733665,17825,9496,12104,10744,12873,15329,9589,10309,8678,9102,3335,3206
13.22.54.772594,3203,9524,12138,10784,17831,5215,9609,10331,8542,8532,3212,17814
13.22.54.810188,3761,9533,12098,10770,3170,3258,9603,10325,7592,9376,17828,17828
13.22.54.848606,14106,9531,12079,10771,8094,12121,9611,10315,9557,9362,10119,3211
13.22.54.886739,17841,9540,12115,10783,13421,17688,9600,10311,9033,8944,3224,3210
13.22.54.923692,3212,9536,12100,10785,17801,11303,9607,10311,8537,8530,3217,17800
13.22.54.961296,7492,9527,12118,10765,3155,3892,9621,10324,9648,9880,17833,17832
13.22.54.999268,16284,9543,12093,10770,7809,11953,9566,10285,9699,9509,17846,6979
13.22.55.036004,17818,9527,12034,10763,13091,17697,9595,10318,9125,9008,3219,3206
13.22.55.073228,3201,9548,12087,10779,17797,8815,9602,10326,8794,8488,3216,17800
13.22.55.109948,3428,9542,12110,10736,3637,3232,9580,10313,8868,9788,17838,17834
13.22.55.147886,13681,9551,12160,10772,6900,11118,9604,10304,9461,9495,16698,3813
13.22.55.186363,17849,9554,12135,10794,13663,17712,9596,10332,9437,8928,3216,3212
13.22.55.222879,3211,9556,12121,10798,17825,16336,9616,10330,9156,8790,3228,9628
13.22.55.258951,3197,9558,12111,10798,10548,3259,9575,10318,7674,9061,17832,17815
13.22.55.297177,13182,9546,12105,10768,3940,10540,9583,10304,9067,9790,17885,17878
13.22.55.334044,17828,9534,12139,10794,12101,15358,9611,10327,9824,9159,4969,3183
13.22.55.371023,13712,9535,12086,10771,17823,16891,9599,10335,8945,8832,3226,10362
13.22.55.408860,3197,9553,12127,10793,6902,3266,9602,10336,7386,9031,17827,17812
13.22.55.446121,11943,9532,12096,10769,3944,10894,9599,10314,9702,9497,17810,15829
13.22.55.484780,17828,9552,12123,10796,13207,16959,9616,10332,9360,9076,3234,3217
13.22.55.523073,3213,9565,12133,10808,17850,3491,9624,10356,8359,8754,9642,17855
13.22.55.562021,10182,9568,12142,10790,3161,8118,9622,10348,8303,10030,17898,17907
13.22.55.600044,17895,9569,12167,10803,12030,14599,9598,10338,9586,9235,6508,3229
13.22.55.638261,6812,9564,12175,10814,17831,12886,9612,10351,9402,8841,3235,17838
13.22.55.676786,4042,9565,12154,10797,9746,3281,9613,10347,7619,9194,17858,17851
13.22.55.714123,13503,9567,12132,10792,7920,11721,9619,10332,9393,9455,15117,5905
13.22.55.752034,17858,9568,12121,10813,13336,17573,9617,10343,9203,9101,3226,3220
13.22.55.789689,3210,9561,12131,10778,17815,11129,9608,10341,8517,8516,3222,17836
13.22.55.826534,3578,9557,12128,10795,3169,3342,9608,10334,9095,9775,17860,17846
13.22.55.865093,14140,9552,12114,10786,8780,12037,9619,10330,9449,9530,16302,3928
13.22.55.902357,17857,9539,12115,10807,12912,17246,9624,10342,9138,9103,3985,3224
13.22.55.937924,10443,9567,12137,10808,17790,17725,9599,10324,9504,8888,3230,10400
13.22.55.974964,3196,9542,12162,10790,16164,3262,9604,10337,8330,8914,17413,17820
13.22.56.011869,10074,9555,12115,10790,3154,6977,9603,10324,8233,10000,17860,17862
13.22.56.050225,17839,9552,12101,10778,12821,16544,9595,10314,9824,9050,3218,3213
13.22.56.090833,3201,9530,12100,10761,17772,7520,9575,10287,8821,8513,9580,17758
13.22.56.127845,8099,9523,12076,10744,3125,3569,9561,10276,7567,9766,17761,17766
13.22.56.166156,17427,9509,12048,10725,9798,12465,9553,10257,9223,9183,7504,3144
13.22.56.203394,17527,9447,11917,10607,13522,17410,9477,10163,9573,8863,3135,3114
13.22.56.240704,3099,9410,11877,10603,17599,9770,9516,10232,8760,8450,3551,17654
13.22.56.277994,8473,9434,12002,10685,3108,5913,9518,10219,8900,10012,17729,17746
13.22.56.316995,17722,9445,12020,10664,11074,12516,9531,10224,9789,9201,9943,3161
13.22.56.353035,17763,9485,12050,10733,13376,17621,9545,10251,9544,8954,3183,3167
13.22.56.390031,3168,9485,12078,10728,17746,8148,9564,10278,8555,8425,3166,17750
13.22.56.427102,5580,9483,12063,10736,5124,3224,9557,10273,9408,9275,17745,17743
13.22.56.464624,13921,9491,12049,10726,5006,11292,9521,10236,9107,9760,17749,17741
13.22.56.500319,17703,9456,12024,10713,12316,13897,9563,10285,9630,9000,4634,3167
13.22.56.537198,15896,9493,12097,10764,16198,9711,9590,10319,8735,8510,3216,17821
13.22.56.577365,6567,9520,12133,10793,3162,3343,9622,10351,7897,9638,17875,17886
13.22.56.615436,15762,9550,12177,10810,10218,12615,9626,10359,9249,9274,6684,3204
13.22.56.653903,15609,9552,12168,10819,17864,16601,9632,10351,9379,8658,3242,17858
13.22.56.692761,3237,9543,12182,10821,11250,3286,9622,10375,9214,9016,17890,17873
13.22.56.729419,12027,9560,12170,10820,3182,7792,9635,10370,8635,9978,17934,17934
13.22.56.766807,17905,9569,12169,10820,9884,12417,9612,10350,8634,9362,11411,3217
13.22.56.803409,17767,9545,12172,10823,15299,17761,9636,10349,9389,8913,3243,9142
13.22.56.841709,3216,9550,12159,10817,8050,3288,9632,10372,9829,9287,17913,17915
13.22.56.881731,14687,9562,12168,10835,9536,12540,9645,10376,8877,9338,12826,3236
13.22.56.919324,17912,9575,12172,10841,14615,17772,9638,10382,8826,8943,3259,3233
13.22.56.956653,3228,9556,12186,10837,17733,3274,9643,10376,8511,8858,15695,17891
13.22.56.994549,8861,9570,12182,10826,3193,3896,9646,10389,7996,9758,17940,17943
13.22.57.032019,15757,9583,12208,10851,10716,12790,9657,10402,9106,9260,6885,3252
13.22.57.070813,12563,9582,12196,10860,17067,17793,9648,10377,8713,8969,3249,3231
13.22.57.107274,3228,9571,12214,10845,15462,3288,9643,10385,9243,8876,11630,17895
13.22.57.144601,8958,9561,12208,10832,3168,4655,9643,10387,9445,9734,17924,17927
13.22.57.182016,15915,9575,12208,10840,10640,12577,9645,10384,9450,9357,8186,3254
13.22.57.219710,17947,9563,12197,10860,13314,17783,9647,10391,9033,9127,3250,3238
13.22.57.255504,3229,9541,12189,10842,16008,3291,9635,10374,8078,8859,17414,17893
13.22.57.295765,11927,9565,12182,10854,3184,8374,9642,10377,8581,9849,17946,17935
13.22.57.333258,17913,9572,12195,10839,12069,14700,9647,10374,9626,9113,3248,3246
13.22.57.371692,3881,9583,12200,10851,17893,11502,9648,10388,8740,8578,3208,17882
13.22.57.409648,3850,9550,12194,10831,3180,3314,9650,10392,7601,9749,17924,17927
13.22.57.447613,13897,9576,12194,10842,6473,11698,9650,10374,9760,9471,13149,3247
13.22.57.485522,17926,9583,12196,10851,13178,17797,9647,10376,9454,9109,3245,3241
13.22.57.522621,3233,9595,12189,10855,17908,7025,9649,10382,8689,8625,3255,16111
13.22.57.559264,3432,9609,12206,10846,7882,3284,9640,10389,9437,9045,17879,17865
13.22.57.595525,11618,9577,12161,10820,3160,7897,9653,10380,7803,9943,17924,17919
13.22.57.632470,17472,9596,12205,10840,10335,12640,9644,10391,9150,9183,4586,3236
13.22.57.671725,3478,9595,12200,10847,17878,13457,9645,10375,9363,8573,3248,17854
13.22.57.709973,5206,9558,12161,10804,3146,3262,9621,10359,7732,9596,17903,17887
13.22.57.747105,13698,9565,12171,10837,7474,12054,9622,10354,9054,9452,14222,3212
13.22.57.785354,17891,9568,12144,10814,13331,17748,9604,10338,9470,8959,3216,3206
13.22.57.823790,3226,9575,12176,10820,16421,3279,9627,10364,9112,8640,9570,17864
13.22.57.861360,9913,9578,12171,10818,3185,6323,9640,10369,7243,9723,17886,17879
13.22.57.897481,13898,9588,12177,10819,7366,11902,9630,10326,10135,9382,15535,3205
13.22.57.936097,17891,9560,12162,10810,13525,17744,9612,10337,9835,8999,3242,3225
13.22.57.973624,3222,9583,12202,10844,17889,4124,9639,10385,8637,8600,3871,17857
13.22.58.010573,8248,9557,12164,10820,3149,3254,9602,10355,7479,9332,17895,17883
13.22.58.046003,12546,9577,12184,10820,3208,10076,9619,10368,8489,9709,17939,15842
13.22.58.084102,17880,9578,12186,10815,12315,15621,9638,10358,9826,9290,8190,3232
13.22.58.120619,11106,9585,12190,10829,16902,17742,9628,10345,9465,8952,3240,3222
13.22.58.157058,3219,9560,12201,10821,16057,3268,9590,10353,8390,8641,9329,17847
13.22.58.194807,10371,9554,12146,10813,3161,8582,9627,10354,9898,10021,17913,17922
13.22.58.233524,17888,9588,12172,10824,12165,15233,9622,10361,9984,9125,3665,3222
13.22.58.272764,3217,9575,12186,10834,17872,3827,9626,10369,8579,8653,10934,17859
13.22.58.311322,10031,9571,12178,10824,3176,3604,9624,10368,7450,9495,17883,17886
13.22.58.347271,13939,9592,12167,10828,4814,10635,9626,10349,9359,9857,17909,17901
13.22.58.382634,17891,9588,12173,10837,11142,12942,9624,10356,10162,9327,12453,3201
13.22.58.419851,16814,9575,12156,10810,13503,17725,9624,10345,9777,8952,3232,3210
13.22.58.457338,3214,9578,12165,10809,17774,4963,9612,10338,8670,8646,10731,17835
13.22.58.494458,9730,9544,12121,10793,3143,5158,9595,10315,8057,9869,17847,17853
13.22.58.531442,14546,9567,12159,10806,7567,11399,9612,10326,9608,9567,17890,12565
13.22.58.567325,17831,9561,12143,10808,12041,14316,9600,10317,9202,9282,9252,3207
13.22.58.603276,16176,9557,12129,10802,17822,17190,9600,10323,8924,8682,3217,17802
13.22.58.642403,3472,9533,12139,10791,3530,3255,9592,10324,8967,9175,17819,17803
13.22.58.679393,12721,9540,12121,10789,6954,12002,9560,10288,9902,9329,13315,3178
13.22.58.719174,17838,9495,12103,10773,15233,17682,9582,10312,9054,8808,3196,7927
13.22.58.757912,3160,9506,12139,10788,14683,3225,9583,10311,8657,8550,3179,17776
13.22.58.793654,7557,9492,12105,10763,3118,4015,9575,10299,7722,9637,17827,17838
13.22.58.831507,14854,9529,12135,10805,9908,12665,9599,10325,8958,9275,8507,3206
13.22.58.870305,12845,9529,12136,10798,17800,15056,9594,10316,8673,8641,3201,17786
13.22.58.909802,5253,9517,12128,10790,3246,3238,9597,10327,7723,9450,17810,17815
13.22.58.947681,13695,9499,12122,10789,8783,12096,9595,10315,9750,9464,16054,3202
13.22.58.985685,17830,9489,12118,10799,13287,17674,9591,10310,9017,9066,3208,3201
13.22.59.021334,3789,9505,12120,10797,17749,17690,9601,10315,8792,8812,3219,9743
13.22.59.057513,3190,9493,12109,10776,9911,3234,9568,10299,9548,8978,17803,17798
13.22.59.096062,12904,9493,12118,10802,3149,9645,9591,10308,8274,9977,17842,17849
13.22.59.133429,17806,9490,12112,10786,11844,14600,9587,10303,9895,9123,3754,3207
13.22.59.171523,3309,9493,12139,10787,17799,11726,9601,10332,8916,8639,3224,17810
13.22.59.209679,6208,9517,12158,10828,4711,3266,9617,10352,9372,9328,17854,17847
13.22.59.247364,14056,9520,12163,10819,5006,11074,9592,10337,9605,9577,16738,6980
13.22.59.284892,17829,9510,12147,10816,13633,17702,9607,10344,9031,8939,3242,3221
13.22.59.323684,3214,9541,12185,10844,12410,3284,9630,10374,8242,9041,17891,17886
13.22.59.362163,12146,9533,12197,10847,3190,5910,9646,10386,7714,9663,17916,17915
13.22.59.397942,14539,9550,12207,10878,8534,12564,9643,10377,10139,9400,10605,3248
13.22.59.435438,17930,9560,12183,10864,13257,17765,9637,10381,9578,9044,3263,6549
13.22.59.473984,3227,9536,12228,10882,15840,3287,9648,10396,8682,8867,10542,17911
13.22.59.511577,11157,9535,12217,10905,3188,8539,9662,10404,9388,10054,17952,17944
13.22.59.548328,16110,9555,12233,10895,9755,12408,9664,10400,9506,9535,13732,3223
13.22.59.585970,17737,9524,12218,10882,13921,17815,9663,10408,9668,9071,3266,3254
13.22.59.622392,3234,9554,12246,10910,17945,6982,9630,10402,9031,8604,3716,17959
13.22.59.659906,6750,9485,12262,10918,3203,3688,9671,10427,9189,9861,17993,17981
13.22.59.698399,16600,9522,12297,10918,8658,12430,9683,10433,9021,9517,13622,3247
13.22.59.735659,18019,9497,12268,10929,14511,17862,9679,10428,8975,9056,3263,3248
13.22.59.773198,3206,9471,12275,10936,18000,5648,9674,10438,9093,8772,9250,17980
13.22.59.810569,9334,9525,12262,10921,3160,6392,9660,10418,9122,9868,18000,17996
13.22.59.847870,14731,9466,12262,10919,9582,12586,9682,10429,8961,9648,16837,7620
13.22.59.884132,17974,9528,12264,10891,12254,16697,9665,10425,9060,9209,4836,3251
13.22.59.920542,8323,9562,12251,10936,17948,17308,9684,10441,9466,8845,3267,17981
13.22.59.959441,5179,9504,12297,10926,3440,3304,9682,10439,9300,9528,17986,17994
13.22.59.997191,13983,9553,12262,10935,5081,10605,9682,10428,9182,9715,18031,16308
13.23.00.033441,17990,9553,12259,10936,11403,12879,9686,10441,10042,9428,11990,3254
13.23.00.068730,18018,9529,12245,10945,13579,17869,9685,10440,9581,9057,3269,3248
13.23.00.106235,3252,9528,12267,10939,17967,13305,9688,10432,8928,8700,3257,17960
13.23.00.143641,8617,9502,12214,10917,3179,3306,9675,10429,9475,9502,17990,17980
13.23.00.180197,13981,9548,12263,10931,5016,11420,9680,10418,9450,9642,17255,10291
13.23.00.217763,17964,9521,12262,10935,13611,17843,9671,10423,9665,9039,3270,3248
13.23.00.256502,3235,9528,12297,10936,17993,5437,9672,10445,9074,8707,4685,17982
13.23.00.294404,10468,9498,12261,10932,3197,6083,9675,10432,8043,9956,18009,18012
13.23.00.331295,15372,9511,12288,10919,8077,12048,9678,10393,9155,9463,14667,3255
13.23.00.369334,17341,9542,12259,10925,15641,17837,9674,10416,9420,8914,3257,3617
13.23.00.406946,3235,9502,12279,10914,12090,3307,9677,10439,8451,9003,18002,17984
13.23.00.445526,12628,9505,12275,10928,3183,9645,9680,10433,8940,9958,18023,10304
13.23.00.483452,17984,9528,12243,10925,12658,17100,9673,10421,9922,9168,3251,3228
13.23.00.521889,3204,9507,12251,10933,17984,13105,9673,10429,9119,8667,3250,17972
13.23.00.558849,3849,9463,12272,10935,6094,3301,9673,10440,7760,9400,17987,17985
13.23.00.596937,13886,9537,12273,10918,6576,11585,9676,10445,9304,9682,17969,9379
13.23.00.634591,18004,9512,12299,10919,12959,17819,9671,10438,9608,9042,3257,3236
13.23.00.672231,3241,9467,12301,10939,17991,15292,9685,10434,9479,8896,3252,12187
13.23.00.707849,3222,9459,12282,10936,14778,3285,9666,10433,7706,8971,17949,17981
13.23.00.744370,10678,9433,12251,10936,3179,9513,9664,10423,9007,10123,18028,18045
13.23.00.782486,18020,9454,12284,10915,10306,12832,9672,10434,10044,9578,12224,3237
13.23.00.819197,17622,9450,12258,10952,16894,17870,9677,10409,9434,8853,3227,16107
13.23.00.858235,3220,9440,12277,10926,4898,3288,9667,10435,7665,9366,18021,18001
13.23.00.895741,12926,9454,12274,10924,3185,7094,9657,10421,8097,10047,18002,18002
13.23.00.932317,18022,9453,12279,10932,11014,13654,9664,10433,9984,9247,5943,3234
13.23.00.970090,11387,9436,12257,10933,17328,17874,9669,10419,9393,8926,3245,12403
13.23.01.008189,3227,9491,12300,10909,9381,3293,9630,10415,8444,8965,14550,17974
13.23.01.044215,10419,9437,12260,10916,3188,5208,9664,10430,7206,9469,17995,17987
13.23.01.080264,13939,9454,12269,10916,9035,12404,9659,10423,10090,9420,11787,3230
13.23.01.118442,18007,9433,12245,10920,13476,17877,9665,10406,9147,9077,3249,3225
13.23.01.156390,3214,9436,12268,10914,17857,3585,9657,10413,8902,8676,3231,17936
13.23.01.193374,7999,9511,12235,10898,3178,4452,9624,10402,7734,9930,17980,17980
13.23.01.230619,14292,9439,12257,10920,7719,11994,9663,10417,9218,9738,18044,7074
13.23.01.267117,17985,9426,12254,10924,12764,17852,9651,10411,8906,9162,3229,3214
13.23.01.304668,3205,9423,12249,10925,17962,8583,9667,10424,8701,8658,3234,17960
13.23.01.342074,3798,9488,12242,10900,3396,3283,9657,10401,7496,9438,17944,17928
13.23.01.379176,12928,9526,12234,10896,3315,9199,9656,10398,8880,10055,17972,17912
13.23.01.415668,17964,9535,12217,10910,11870,13992,9634,10413,9252,9278,6797,3242
13.23.01.453041,14619,9540,12232,10906,17883,17817,9650,10404,8919,8996,3244,3229
13.23.01.490390,3220,9531,12249,10893,15948,3287,9663,10408,8924,9004,17944,17921
13.23.01.528599,11905,9535,12233,10897,3186,9771,9646,10362,8972,10110,17958,17962
13.23.01.565492,17954,9537,12231,10902,11842,13184,9653,10399,9100,9283,6820,3236
13.23.01.602481,17326,9538,12228,10889,17641,17652,9659,10402,9394,8993,3250,4776
13.23.01.640621,3224,9535,12247,10902,8983,3293,9655,10409,7728,8950,17933,17914
13.23.01.677955,11340,9534,12223,10894,3185,6816,9654,10395,9317,9822,17934,17935
13.23.01.714130,14196,9535,12237,10884,10324,12655,9652,10368,9980,9275,7474,3239
13.23.01.752794,15975,9538,12231,10894,17810,10086,9655,10392,9395,8709,3246,17906
13.23.01.792391,4774,9547,12239,10888,6322,3289,9654,10401,9251,9288,17933,17926
13.23.01.829598,13450,9542,12233,10879,9451,12113,9655,10388,9077,9472,12021,3242
13.23.01.868249,17950,9554,12222,10889,14245,17797,9660,10399,8946,9078,3258,3241
13.23.01.905767,3228,9561,12247,10893,17923,9242,9656,10406,8533,8721,3250,17909
13.23.01.941965,3787,9556,12253,10879,4081,3293,9660,10411,7335,9393,17949,17937
13.23.01.980160,13850,9588,12226,10882,6541,11972,9660,10403,9261,9434,17993,13951
13.23.02.017284,17930,9575,12224,10876,13083,16883,9659,10397,9089,9201,3600,3246
13.23.02.054286,3692,9579,12235,10886,17914,14157,9662,10410,9323,8963,3255,17918
13.23.02.091630,3249,9584,12244,10876,5017,3273,9657,10404,7427,9372,17936,17935
13.23.02.129732,13738,9592,12234,10893,3625,9925,9656,10416,8697,9789,17967,17974
13.23.02.165883,17952,9572,12233,10885,12021,15455,9672,10408,9280,9287,5426,3225
13.23.02.203419,9321,9595,12252,10900,15386,17804,9666,10400,9799,9141,3286,3249
13.23.02.237801,3261,9584,12251,10903,17923,11066,9664,10409,8820,8795,3258,17923
13.23.02.276501,7825,9591,12211,10872,3194,3585,9663,10417,7793,9804,17965,17962
13.23.02.315455,17962,9600,12239,10910,11564,12934,9653,10395,9248,9373,11669,3249
13.23.02.351712,17971,9594,12245,10904,14645,17810,9666,10398,9039,9042,3259,3239
13.23.02.389873,3236,9577,12253,10902,14984,3293,9663,10418,9156,9058,17948,17932
13.23.02.427951,11529,9586,12249,10914,3188,6676,9645,10387,9215,9986,17968,17977
13.23.02.466260,17945,9583,12230,10905,12436,15998,9664,10407,9190,9225,4499,3246
13.23.02.504066,3869,9593,12241,10900,17929,16996,9664,10416,8728,8865,3257,17918
13.23.02.542814,6749,9589,12239,10908,3193,3344,9658,10420,7442,9371,17944,17945
13.23.02.580253,13914,9591,12246,10900,9109,12025,9671,10413,9964,9317,15744,3243
13.23.02.618490,17949,9577,12245,10903,13155,17799,9661,10407,9769,9241,3253,3244
13.23.02.654355,3246,9597,12238,10913,17933,17542,9660,10412,8998,9237,3259,16729
13.23.02.691892,3846,9583,12265,10911,5183,3295,9667,10412,7331,9357,17950,17946
13.23.02.729298,13172,9587,12236,10906,4809,11176,9647,10388,9098,9298,17646,12997
13.23.02.766836,17950,9586,12250,10911,12810,16444,9664,10411,8981,9262,3328,3246
13.23.02.804994,3231,9595,12263,10907,17935,5031,9666,10412,8492,9475,3249,17927
13.23.02.842587,6209,9577,12256,10911,3197,3948,9667,10416,8167,9173,17970,17967
13.23.02.882461,17946,9595,12251,10915,12566,17267,9666,10412,9764,9274,3503,3246
13.23.02.920372,5956,9585,12252,10918,17945,17635,9665,10406,9537,9219,3256,17935
13.23.02.958259,3395,9585,12249,10901,3272,3282,9668,10416,7519,9447,17960,17957
13.23.02.996305,13539,9591,12254,10920,3228,9357,9661,10413,9215,9437,17983,17998
13.23.03.033029,17943,9581,12249,10928,11624,14303,9663,10415,9085,9290,4319,3242
13.23.03.070693,4154,9579,12246,10907,17928,14478,9667,10408,9480,9142,3256,10800
13.23.03.107310,3221,9565,12251,10901,17689,3284,9661,10414,9227,9348,16867,17925
13.23.03.144842,11891,9545,12246,10901,3189,8180,9666,10408,8068,9568,17968,17980
13.23.03.182852,17940,9519,12237,10903,12426,16129,9667,10409,10014,9327,6927,3236
13.23.03.220338,6066,9530,12246,10926,17926,12580,9664,10406,9259,9091,3253,17914
13.23.03.258995,5121,9525,12243,10898,3180,3308,9650,10410,7533,9351,17940,17920
13.23.03.294840,12078,9528,12218,10884,3184,8054,9652,10401,8256,9520,17945,17947
13.23.03.332046,17947,9552,12229,10900,12258,17352,9665,10405,9943,9241,3259,3237
13.23.03.370911,3354,9542,12228,10910,17877,17609,9657,10401,9429,9149,3246,17907
13.23.03.408197,3319,9518,12248,10878,4229,3286,9651,10399,7510,9426,17927,17926
13.23.03.446788,13903,9546,12244,10887,5860,11983,9649,10400,9112,9388,17425,3389
13.23.03.485352,17809,9544,12231,10902,16522,17798,9656,10397,8997,9143,3245,8884
13.23.03.524032,3211,9542,12256,10894,16638,3297,9656,10412,8835,9457,9883,17926
13.23.03.560435,9971,9547,12242,10904,3181,3308,9665,10420,7583,9429,17946,17937
13.23.03.595358,12723,9552,12255,10908,4907,11494,9661,10407,9331,9359,17825,5101
13.23.03.634447,17964,9545,12246,10901,13626,17802,9660,10419,9740,9188,3262,3241
13.23.03.672514,3226,9559,12259,10908,17932,4376,9657,10422,8940,9488,11517,17927
13.23.03.710483,10217,9553,12240,10893,3198,4682,9659,10415,7851,9462,17955,17960
13.23.03.748139,17031,9555,12242,10893,10927,13462,9663,10420,10150,9351,10076,3247
13.23.03.786351,11825,9556,12235,10903,17938,16632,9665,10409,9463,9113,3254,16900
13.23.03.824236,3229,9554,12258,10908,8389,3297,9664,10419,7555,9410,17960,17921
13.23.03.861602,12216,9555,12253,10904,3188,7936,9662,10395,8114,9596,17970,17978
13.23.03.899211,17951,9556,12263,10903,12294,17473,9666,10415,9171,9318,7499,3243
13.23.03.936302,12229,9561,12242,10915,17920,17488,9666,10408,9016,9068,3261,17922
13.23.03.975044,3620,9564,12269,10905,7910,3305,9663,10430,9126,9410,17939,17918
13.23.04.011718,12513,9572,12233,10918,3212,9328,9659,10407,9257,9637,17971,17968
13.23.04.049147,17931,9550,12249,10903,12136,15938,9662,10411,9087,9272,7722,3253
13.23.04.086855,6726,9558,12241,10919,17935,17799,9667,10406,9626,9043,3258,13191
13.23.04.124493,3212,9550,12255,10901,13416,3296,9659,10413,8375,9447,17418,17922
13.23.04.161330,11902,9552,12236,10901,3184,9262,9665,10406,9285,9432,17959,17962
13.23.04.198597,17960,9546,12258,10891,11812,14938,9658,10401,9106,9263,4730,3247
13.23.04.236626,8503,9567,12250,10912,17925,17007,9649,10391,8984,9161,3247,16419
13.23.04.274547,3223,9549,12233,10898,4553,3293,9654,10393,7772,9415,17931,17925
13.23.04.311814,12437,9557,12234,10891,3184,8431,9655,10396,8421,9394,17947,17946
13.23.04.348301,17661,9555,12231,10886,10837,13601,9649,10410,9925,9246,6872,3242
13.23.04.386593,8782,9555,12231,10905,17082,17797,9655,10394,9535,9207,3243,17413
13.23.04.424201,3224,9541,12240,10898,11669,3293,9654,10407,8992,9429,17928,17915
13.23.04.461830,12491,9559,12233,10890,3189,7568,9643,10386,9013,9525,17940,17924
13.23.04.498299,17652,9540,12218,10887,10083,13086,9651,10395,9113,9374,15197,4193
13.23.04.534143,17917,9537,12221,10896,12894,17793,9648,10399,9794,9211,3236,3229
13.23.04.572141,3221,9549,12207,10888,17882,4999,9630,10384,9054,9065,3233,17872
13.23.04.608384,3955,9547,12231,10885,3314,3256,9641,10377,7614,9389,17902,17891
13.23.04.644724,11856,9558,12239,10894,10272,13172,9653,10407,10040,9312,10639,3234
13.23.04.686278,11719,9546,12227,10903,17896,17676,9644,10404,9509,9119,3246,3224
13.23.04.722167,3220,9547,12232,10899,17900,10606,9648,10391,9302,9003,3232,17881
13.23.04.757864,3216,9540,12231,10900,10691,3292,9647,10399,8111,9300,9816,17894
13.23.04.794088,10874,9545,12229,10890,3182,8968,9648,10383,8509,9588,17945,17942
13.23.04.832406,17918,9546,12220,10883,12671,17728,9657,10400,8994,9305,8207,3212
13.23.04.869771,9990,9550,12220,10883,17897,17761,9648,10383,8990,9096,3243,10333
13.23.04.907568,3193,9521,12210,10884,12235,3258,9620,10375,9081,9410,17911,17897
13.23.04.945367,12720,9533,12221,10882,4235,10736,9649,10382,9064,9387,17951,17940
13.23.04.982581,17910,9559,12231,10898,11675,14567,9647,10393,9955,9232,7340,3233
13.23.05.020342,5003,9545,12221,10892,17890,10121,9644,10383,9007,9233,3239,17892
13.23.05.059202,6850,9530,12235,10873,3186,3274,9642,10392,7316,9394,17908,17916
13.23.05.096515,13987,9548,12237,10873,9038,12783,9613,10351,9096,9347,14034,3202
13.23.05.134755,17911,9528,12198,10889,13583,17770,9643,10389,9591,9213,3238,3227
13.23.05.171401,3216,9544,12198,10856,17865,11715,9617,10370,9021,9163,3199,17867
13.23.05.208964,6166,9502,12208,10857,3178,3240,9610,10368,7231,9414,17883,17875
13.23.05.245907,13343,9502,12197,10841,5279,10675,9604,10355,9110,9386,17931,15748
13.23.05.282978,17889,9520,12209,10859,12911,17753,9619,10373,8953,9183,3204,3207
13.23.05.321092,3182,9522,12194,10867,17874,11827,9626,10364,8963,9052,3215,17861
13.23.05.358957,6076,9499,12203,10874,6832,3267,9620,10371,9133,9370,14522,17868
13.23.05.393590,9995,9506,12211,10872,3158,4125,9626,10364,8987,9614,17906,17900
13.23.05.429763,13893,9499,12215,10866,6793,11643,9641,10393,9170,9403,17431,7363
13.23.05.467448,17925,9524,12241,10905,13876,17782,9666,10401,9631,9195,3256,3237
13.23.05.504135,3265,9529,12255,10899,17911,7023,9660,10409,9298,9128,3460,17903
13.23.05.542404,6828,9519,12249,10903,3180,3290,9655,10417,7676,9570,17945,17939
13.23.05.580290,14028,9534,12227,10864,9383,12376,9625,10376,9531,9390,17904,12364
13.23.05.616938,17904,9494,12215,10870,13175,17765,9627,10385,9753,9172,3216,3206
13.23.05.655427,3202,9510,12215,10881,17820,4105,9630,10382,9169,9365,3767,17896
13.23.05.693529,10212,9501,12234,10872,3154,6676,9639,10382,8969,9334,17919,17921
13.23.05.729427,13263,9517,12226,10867,5333,11502,9635,10378,9432,9288,16252,3213
13.23.05.767677,17921,9505,12233,10882,13198,17776,9626,10375,9056,9201,3213,3203
13.23.05.805466,3200,9493,12215,10874,17884,3354,9626,10384,8874,9583,3200,17884
13.23.05.842822,8054,9509,12223,10874,3150,3265,9629,10390,8991,9282,17911,17911
13.23.05.879670,13556,9516,12206,10869,4716,11226,9630,10360,9080,9227,17932,8515
13.23.05.916894,17894,9506,12209,10858,13221,17785,9629,10379,9053,9239,6353,3205
13.23.05.952397,15475,9516,12214,10866,13996,17761,9625,10376,8932,9187,3218,10594
13.23.05.990726,3188,9507,12211,10874,8638,3255,9625,10371,8853,9477,17895,17882
13.23.06.028265,12283,9508,12213,10851,9437,12806,9626,10369,9079,9291,12230,3205
13.23.06.068247,17920,9501,12212,10844,14534,17754,9633,10383,9580,9170,3237,3209
13.23.06.106595,3203,9506,12215,10873,13139,3265,9628,10396,8375,9409,17914,17883
13.23.06.144291,11495,9509,12215,10858,3157,8181,9625,10385,8573,9371,17943,17931
13.23.06.182726,17898,9506,12214,10876,13136,17775,9633,10370,9754,9167,3220,3204
13.23.06.221987,3194,9503,12218,10869,17888,14606,9625,10378,9361,9078,3218,17882
13.23.06.258029,3411,9497,12228,10869,6329,3256,9629,10384,9134,9415,17901,17896
13.23.06.295656,13248,9506,12200,10872,3267,9491,9630,10379,8198,9499,17933,17516
13.23.06.332731,17906,9511,12216,10883,12456,17748,9627,10379,9068,9208,4599,3218
13.23.06.370930,3185,9516,12227,10874,17220,3264,9625,10387,9108,9295,5018,17885
13.23.06.410744,11441,9500,12207,10878,3155,6062,9631,10380,7796,9528,17918,17924
13.23.06.447230,14694,9507,12192,10873,7974,12403,9627,10388,9451,9333,17957,3324
13.23.06.484018,17896,9499,12194,10874,13162,17768,9628,10384,9701,9245,3208,3206
13.23.06.521668,3192,9517,12236,10879,17896,5303,9628,10376,9211,9398,3882,17880
13.23.06.560042,9830,9509,12220,10870,3162,4279,9627,10383,7925,9343,17914,17911
13.23.06.597531,16042,9519,12217,10875,8731,12345,9635,10386,9136,9319,17774,11405
13.23.06.633222,17906,9514,12215,10867,12145,15084,9627,10381,8985,9247,4409,3213
13.23.06.670528,3515,9516,12230,10878,17881,7163,9622,10383,9168,9326,3213,17889
13.23.06.708984,6975,9507,12219,10871,4032,3264,9626,10383,7531,9401,17908,17902
13.23.06.745912,13408,9518,12231,10876,5570,11772,9633,10373,9151,9347,17965,8809
13.23.06.783538,17907,9509,12225,10880,13027,17775,9632,10389,9072,9198,3221,3205
13.23.06.822237,3209,9520,12221,10899,17899,9309,9640,10392,8948,9184,3220,17904
13.23.06.857663,3232,9523,12232,10898,12778,3267,9633,10400,9108,9401,17318,17923
13.23.06.894528,12097,9494,12229,10910,3732,10732,9637,10397,9004,9357,16677,5816
13.23.06.933651,17942,9507,12244,10903,12445,15955,9638,10397,9085,9271,5887,3218
13.23.06.969177,13417,9518,12250,10910,13779,17794,9637,10409,8977,9134,3227,3212
13.23.07.005661,3201,9501,12261,10912,17181,3267,9648,10414,8860,9277,10705,17923
13.23.07.043436,10498,9505,12246,10902,3163,4653,9647,10416,9095,9545,17956,17942
13.23.07.080224,14256,9510,12242,10905,5919,11820,9639,10398,9112,9413,17992,9947
13.23.07.116687,17942,9505,12256,10903,13125,17806,9640,10402,9011,9185,3228,3200
13.23.07.155585,3210,9493,12235,10898,17556,3444,9642,10412,9008,9122,3215,17913
13.23.07.192632,7890,9497,12257,10901,3167,3266,9640,10409,9108,9452,17937,17944
13.23.07.230062,13933,9506,12242,10903,6823,12043,9641,10397,9157,9377,17373,10471
13.23.07.267251,17948,9513,12236,10886,13300,17784,9645,10401,9013,9182,3230,3209
13.23.07.305049,3207,9495,12236,10891,17908,9278,9635,10398,9007,9218,3223,17902
13.23.07.342522,7743,9506,12228,10902,3166,4907,9639,10402,9088,9423,17937,17943
13.23.07.380795,16246,9504,12243,10895,8730,12619,9637,10389,9076,9327,15750,3207
13.23.07.418346,17617,9511,12254,10903,13821,17792,9649,10409,9016,9197,3229,3215
13.23.07.455071,3212,9502,12250,10916,17553,3257,9639,10402,9065,9405,17921,17904
13.23.07.494145,11350,9485,12226,10899,3179,6819,9638,10397,9113,9497,17929,17939
13.23.07.531321,17733,9499,12238,10899,10353,13025,9635,10406,8960,9269,8107,3214
13.23.07.569414,10922,9505,12225,10894,17905,17774,9630,10396,8963,9081,3224,16277
13.23.07.607051,3201,9503,12245,10903,17535,3260,9632,10406,9025,9414,17924,17906
13.23.07.645066,12703,9498,12230,10895,3198,9208,9631,10389,9087,9505,17952,17593
13.23.07.683025,17926,9498,12238,10899,12815,17801,9630,10402,9592,9181,3224,3217
13.23.07.720100,4793,9512,12230,10912,16753,17782,9636,10396,9015,9132,3230,3207
13.23.07.755118,3201,9511,12246,10909,17911,7340,9641,10407,9008,9043,3224,17855
13.23.07.791003,3331,9495,12246,10893,3338,3263,9640,10401,9088,9484,17923,17923
13.23.07.829252,13515,9516,12222,10897,7071,11414,9631,10387,9101,9388,17293,3560
13.23.07.867996,17939,9499,12225,10890,13291,17782,9627,10395,9015,9159,3280,3204
13.23.07.904254,3189,9490,12231,10890,17903,11275,9630,10388,8932,9040,3209,17904
13.23.07.941751,5032,9495,12241,10895,9402,3269,9633,10409,9071,9277,11098,17911
13.23.07.977001,10745,9495,12235,10890,3145,8502,9636,10394,9080,9483,17964,17974
13.23.08.015522,17948,9488,12237,10913,11667,14573,9635,10394,9051,9243,8493,3210
13.23.08.052550,12473,9493,12246,10903,17925,17799,9633,10366,8968,9153,3223,3202
13.23.08.088987,3187,9481,12250,10894,17133,3264,9640,10382,8757,9517,17943,17931
13.23.08.127907,12195,9507,12259,10912,3819,10686,9653,10396,8753,8997,17991,17989
13.23.08.165642,17966,9514,12296,10923,12723,17299,9664,10381,9043,9295,3233,3236
13.23.08.204250,3225,9520,12261,10927,17940,16373,9661,10390,9014,9491,3245,17930
13.23.08.241038,3546,9517,12278,10932,9421,3284,9673,10394,9106,9474,17952,17936
13.23.08.277505,11690,9509,12271,10936,3186,8011,9652,10391,9044,9093,17984,17987
13.23.08.315158,17980,9511,12280,10928,11209,13034,9673,10403,8998,9303,10123,3242
13.23.08.352145,15286,9519,12280,10926,17494,17827,9673,10394,9020,9270,3249,9721
13.23.08.389923,3212,9512,12282,10937,12520,3297,9659,10402,8304,9562,12051,17943
13.23.08.427384,11510,9523,12266,10928,3178,8312,9663,10390,8267,9362,17996,18000
13.23.08.465867,17957,9527,12266,10920,12518,15512,9661,10400,9707,9205,4211,3238
13.23.08.503985,3225,9522,12264,10934,17944,15909,9671,10396,9004,9153,3245,9986
13.23.08.539727,3226,9520,12271,10925,17862,3427,9651,10389,9061,9387,11783,17918
13.23.08.576976,10704,9506,12262,10922,3175,7718,9660,10379,8142,9493,17965,17960
13.23.08.613827,15364,9514,12279,10921,10180,12748,9664,10392,9255,9304,12301,3239
13.23.08.651845,16911,9520,12272,10932,17667,17785,9670,10397,9048,9149,3248,11477
13.23.08.690428,3224,9515,12290,10927,5945,3299,9668,10411,9123,9437,17962,17943
13.23.08.728251,12710,9526,12272,10912,3220,9774,9672,10384,9113,9387,17990,17770
13.23.08.765907,17949,9517,12262,10903,12866,17165,9654,10399,9108,9289,5767,3238
13.23.08.803445,4161,9510,12285,10918,17935,6707,9661,10386,8975,9517,3244,17929
13.23.08.841523,5007,9515,12266,10917,3177,3291,9663,10399,9119,9172,17957,17946
13.23.08.879637,13557,9509,12265,10881,9002,12520,9654,10378,8997,9275,15884,3324
13.23.08.917603,17971,9513,12258,10894,13463,17807,9660,10374,8979,9287,3240,3228
13.23.08.954232,3222,9505,12254,10889,17925,11772,9664,10380,9007,9518,3238,14976
13.23.08.990139,3213,9505,12256,10876,5833,3280,9654,10387,9202,9284,17936,17931
13.23.09.029410,13438,9515,12269,10884,9586,12810,9661,10386,9132,9308,13393,3228
13.23.09.067767,17959,9518,12249,10889,13114,17803,9655,10382,9628,9241,3245,3221
13.23.09.104859,3210,9521,12246,10899,17677,3267,9655,10390,9140,9547,17938,17920
13.23.09.144227,11910,9518,12249,10890,3167,8933,9642,10376,7944,9330,17947,17947
13.23.09.180767,16582,9516,12250,10885,10119,12954,9659,10391,9108,9327,11225,3240
13.23.09.218937,13495,9528,12260,10913,17297,17824,9674,10400,8966,9176,3250,4028
13.23.09.255950,3219,9531,12285,10903,17405,3281,9664,10386,9035,9437,14807,17947
13.23.09.293525,10969,9526,12276,10899,3185,3998,9659,10394,9095,9475,17961,17966
13.23.09.329942,14039,9538,12262,10881,10343,12873,9666,10399,9909,9361,15486,3236
13.23.09.367675,17973,9531,12279,10896,12788,17814,9658,10381,9033,9181,3245,3230
13.23.09.404440,3220,9514,12273,10888,17928,3434,9657,10398,8909,9386,10693,17927
13.23.09.443588,11093,9514,12263,10879,3173,8404,9649,10390,8052,9480,17969,17960
13.23.09.480606,16185,9531,12252,10869,9475,12473,9664,10382,9101,9353,16747,7233
13.23.09.516712,17965,9513,12268,10880,12990,17821,9665,10398,9093,9188,3244,3231
13.23.09.554870,3230,9518,12267,10890,17931,14255,9658,10400,9056,9228,3245,17921
13.23.09.590899,3597,9515,12265,10868,5865,3297,9657,10404,9367,9439,17948,17933
13.23.09.628184,12876,9524,12269,10880,3579,10303,9662,10393,9075,9277,18004,14377
13.23.09.666114,17954,9518,12284,10875,12845,17829,9674,10403,8982,9221,3338,3238
13.23.09.703689,3294,9539,12272,10883,17941,16647,9664,10403,8994,9370,3244,17937
13.23.09.740863,3722,9524,12284,10871,7731,3296,9669,10407,9038,9422,17961,17960
13.23.09.778423,12943,9526,12275,10882,3180,9634,9657,10404,9049,9338,17980,17980
13.23.09.814455,17741,9530,12272,10883,9998,12951,9670,10398,9080,9322,14770,3814
13.23.09.850510,17969,9529,12279,10872,13126,17826,9662,10404,8973,9200,3249,3222
13.23.09.889118,3226,9527,12264,10875,14462,3291,9672,10407,9021,9386,14470,17945
13.23.09.926547,10353,9519,12289,10875,3188,3287,9666,10404,9129,9466,17962,17961
13.23.09.962198,13348,9525,12278,10870,3657,10479,9668,10400,8753,9416,18016,15694
13.23.09.999543,17966,9534,12278,10880,12593,17737,9661,10397,9035,9232,3372,3244
13.23.10.036231,6466,9526,12271,10876,17745,17825,9664,10400,9002,9155,3250,3230
13.23.10.072302,3228,9516,12273,10855,13795,3290,9659,10404,9122,9423,17965,17943
13.23.10.110830,11932,9535,12286,10863,3179,10321,9667,10405,7950,9528,17969,17959
13.23.10.147081,15977,9520,12274,10854,10189,13056,9662,10401,9040,9304,11489,3233
13.23.10.184261,17969,9522,12274,10870,14263,17812,9657,10392,8970,9173,3248,3228
13.23.10.221667,3220,9520,12268,10874,14504,3288,9664,10400,8891,9266,3230,17928
13.23.10.258174,5713,9520,12281,10858,4358,3286,9658,10403,9207,9421,17954,17949
13.23.10.295177,12885,9519,12270,10858,4004,10596,9651,10382,9098,9313,17998,16180
13.23.10.332794,17952,9511,12261,10845,12492,17732,9651,10388,9092,9232,4986,3234
13.23.10.369146,9638,9518,12267,10865,15567,17809,9653,10385,9009,9148,3239,5314
13.23.10.405855,3244,9520,12275,10842,16008,3281,9653,10397,9134,9536,10183,17927
13.23.10.443155,10621,9523,12261,10849,3174,7748,9660,10395,9103,9308,17952,17964
13.23.10.479983,14190,9529,12266,10850,7740,12979,9670,10391,9212,9344,13832,3238
13.23.10.518011,17299,9522,12249,10848,13270,17795,9654,10381,9547,9222,3252,3224
13.23.10.555084,3221,9512,12254,10842,17927,4273,9657,10408,8724,9402,6942,17920
13.23.10.592658,9549,9528,12272,10848,3255,3280,9660,10391,7424,9432,17941,17934
13.23.10.628089,12429,9526,12257,10835,4136,11044,9659,10396,9117,9405,18007,15188
13.23.10.666317,17948,9520,12276,10850,12631,16183,9670,10399,9747,9251,5772,3230
13.23.10.704181,3210,9521,12265,10841,17928,16376,9663,10396,8976,9114,3243,15749
13.23.10.740187,3195,9514,12276,10834,8167,3287,9655,10393,8036,9429,17948,17928
13.23.10.776971,11402,9521,12263,10850,3169,8542,9658,10390,8299,9520,17956,17960
13.23.10.814190,17659,9528,12255,10832,10538,12856,9655,10387,10043,9360,13983,3231
13.23.10.851230,17634,9523,12279,10845,13206,17797,9651,10391,9602,9173,3240,3225
13.23.10.888360,3214,9516,12275,10841,17937,3647,9661,10403,8852,9275,3644,17922
13.23.10.925545,8920,9515,12260,10839,3175,4331,9651,10396,7896,9471,17936,17933
13.23.10.962508,13719,9524,12255,10832,8727,12298,9657,10391,9166,9386,17995,11869
13.23.10.999552,17937,9518,12271,10845,12889,17794,9648,10389,9051,9198,3243,3227
13.23.11.037323,3220,9515,12271,10839,17912,10403,9657,10387,8881,9283,3231,17906
13.23.11.074606,5876,9508,12255,10829,3218,3274,9644,10394,9159,9320,17936,17934
13.23.11.112780,13510,9510,12267,10816,8675,12447,9655,10379,9076,9285,17984,15323
13.23.11.148904,17935,9518,12252,10816,12521,16056,9652,10382,9017,9284,3888,3230
13.23.11.185737,9476,9524,12266,10844,16659,17799,9656,10389,9493,9218,3242,11894
13.23.11.223439,3213,9524,12260,10822,5223,3282,9654,10385,9350,9483,17935,17922
13.23.11.260981,12674,9521,12246,10820,3180,7405,9651,10384,8184,9145,17952,17961
13.23.11.297804,17938,9524,12275,10807,12119,16166,9661,10386,9832,9248,4910,3237
13.23.11.335685,10035,9524,12248,10814,17880,17438,9662,10384,9115,9192,3242,15656
13.23.11.373373,3209,9527,12267,10833,14522,3285,9650,10391,9096,9467,17935,17918
13.23.11.410346,11598,9512,12252,10802,3177,8075,9649,10385,9013,9428,17957,17963
13.23.11.448332,17947,9517,12263,10822,12397,16993,9657,10382,9746,9228,7317,3227
13.23.11.485106,13917,9531,12263,10799,15390,17787,9657,10379,8980,9142,3241,3227
13.23.11.521609,3231,9532,12270,10818,16894,3283,9654,10399,9102,9406,11601,17918
13.23.11.560242,11451,9522,12260,10809,3161,8759,9656,10389,9154,9471,17955,17957
13.23.11.597864,17954,9519,12254,10820,12453,16399,9657,10390,9659,9276,7659,3225
13.23.11.634769,16415,9522,12253,10837,13974,17777,9650,10376,8950,9125,3242,3219
13.23.11.672517,3217,9510,12253,10825,13857,3283,9651,10385,8931,9364,16382,17903
13.23.11.709361,9861,9530,12263,10813,3169,6134,9646,10377,8381,9471,17934,17944
13.23.11.747800,17947,9514,12247,10806,11697,14218,9644,10386,9841,9277,5443,3220
13.23.11.785624,9721,9521,12210,10787,17091,17751,9626,10349,9427,9172,3230,10418
13.23.11.823121,3206,9503,12225,10781,13967,3266,9637,10357,8835,9660,12781,17872
13.23.11.858990,9071,9498,12232,10797,3162,4953,9638,10376,9317,9062,17915,17929
13.23.11.896452,14063,9522,12249,10791,8694,12605,9647,10366,9038,9264,13374,3222
13.23.11.933676,17940,9517,12240,10803,13537,17772,9648,10369,8933,9270,3242,3228
13.23.11.971448,3218,9523,12266,10807,17921,7009,9651,10391,8930,9790,3256,17908
13.23.12.008984,9046,9526,12237,10815,3168,4717,9651,10382,7616,9045,17933,17932
13.23.12.046126,13631,9530,12259,10823,7066,11779,9651,10379,9343,9137,17929,9813
13.23.12.083038,17937,9519,12246,10832,13355,17784,9649,10381,9625,9201,3247,6364
13.23.12.122367,3225,9524,12257,10819,10179,3282,9649,10389,8281,9509,17933,17918
13.23.12.160690,11515,9541,12272,10777,3182,7907,9649,10381,8143,9318,17951,17963
13.23.12.197956,17949,9532,12253,10768,11506,13727,9653,10389,9206,9281,7590,3234
13.23.12.235305,11591,9526,12267,10809,17798,4307,9650,10386,8845,9392,4680,17908
13.23.12.275573,9174,9527,12255,10803,3179,5343,9656,10385,9051,9418,17942,17943
13.23.12.314173,17820,9528,12255,10822,11381,14338,9656,10383,8971,9244,6393,3235
13.23.12.352208,9665,9535,12258,10838,16173,17794,9655,10379,8967,9152,3239,3222
13.23.12.389045,3211,9523,12247,10780,13757,3282,9651,10382,9014,9407,17106,17915
13.23.12.427023,11853,9524,12255,10785,3167,9247,9650,10377,8450,9393,17955,17960
13.23.12.464630,17927,9522,12229,10766,11151,13284,9647,10377,9924,9210,4583,3222
13.23.12.503354,3214,9527,12259,10759,17890,17712,9647,10374,9051,9233,3230,17891
13.23.12.540429,3586,9524,12265,10798,7015,3295,9652,10387,7983,9494,17914,17906
13.23.12.577534,12463,9522,12244,10805,3171,7879,9648,10376,9097,9110,17940,17948
13.23.12.614472,17929,9535,12254,10765,12081,16911,9643,10382,9757,9279,7038,3220
13.23.12.651220,16810,9519,12245,10766,16532,17766,9649,10365,8914,9213,3235,3215
13.23.12.687801,3206,9538,12251,10780,17884,5929,9641,10365,8914,9525,3229,17879
13.23.12.724579,6055,9532,12241,10744,3168,3824,9640,10371,7511,9198,17904,17912
13.23.12.762287,13392,9539,12227,10791,5611,11573,9638,10360,9197,9229,16478,11432
13.23.12.799301,17902,9542,12243,10787,12982,17760,9632,10367,9655,9219,3371,3225
13.23.12.837074,3211,9535,12229,10766,17889,4654,9636,10366,8959,9489,3205,17878
13.23.12.875627,9344,9528,12247,10754,3166,5731,9638,10376,7782,9345,17907,17913
13.23.12.912663,13902,9543,12240,10776,5213,11892,9642,10376,9547,9290,16241,3430
13.23.12.949863,17912,9500,12228,10758,13291,17776,9632,10372,8948,9169,3223,3220
13.23.12.987399,3212,9516,12239,10826,17869,3899,9643,10377,8873,9345,8850,17889
13.23.13.026298,10801,9513,12254,10781,3170,6036,9642,10374,8979,9416,17905,17905
13.23.13.062484,13503,9525,12235,10751,7789,11826,9645,10363,8975,9321,17930,12864
13.23.13.099615,17906,9514,12238,10782,13108,17763,9642,10374,8868,9182,3224,3222
13.23.13.137054,3210,9516,12241,10779,17897,9012,9640,10370,8769,9185,3228,17880
13.23.13.174635,6824,9515,12244,10814,3170,4697,9644,10373,8886,9427,17916,17922
13.23.13.213215,15070,9519,12259,10781,10348,12864,9643,10381,8960,9305,14145,4296
13.23.13.249860,17921,9528,12239,10810,12820,17776,9645,10372,9018,9244,3593,3222
13.23.13.287033,3203,9524,12255,10826,17896,16139,9646,10378,8856,9506,3226,17892
13.23.13.324791,7185,9516,12246,10774,3179,3267,9641,10385,8944,9232,17923,17911
13.23.13.362273,13412,9529,12252,10795,9044,12569,9652,10362,8960,9224,17771,15536
13.23.13.399408,17920,9516,12236,10769,12467,17773,9652,10369,8955,9220,3221,3215
13.23.13.436883,3213,9525,12237,10779,17889,6538,9638,10380,8669,9565,3222,17886
13.23.13.474388,6044,9519,12257,10816,3178,3277,9647,10395,8986,9325,17924,17923
13.23.13.512524,13454,9519,12259,10758,6617,11622,9654,10374,8958,9228,17978,14220
13.23.13.549157,17927,9507,12241,10762,12873,17783,9645,10379,9626,9183,3237,3218
13.23.13.586536,3214,9519,12246,10805,17908,15151,9645,10378,9402,9188,3231,17900
13.23.13.623638,3859,9514,12251,10779,11183,3277,9642,10389,9029,9422,17928,17914
13.23.13.661641,13175,9524,12253,10766,5319,11179,9643,10369,9222,9338,17983,13018
13.23.13.698867,17915,9540,12258,10784,12537,16900,9654,10385,8891,9231,5050,3222
13.23.13.736103,4238,9516,12258,10785,17908,14558,9655,10381,9350,9173,3225,17891
13.23.13.774836,7807,9529,12260,10788,3180,3269,9640,10380,7340,9418,17923,17922
13.23.13.812021,13420,9530,12264,10759,8014,12417,9652,10387,8957,9306,10119,3230
13.23.13.850617,17726,9528,12252,10766,12948,17773,9649,10377,8826,9118,3239,3216
13.23.13.888095,3208,9517,12260,10781,11151,3278,9647,10388,8956,9421,17922,17911
13.23.13.927742,12471,9527,12258,10820,6217,11909,9650,10374,8952,9293,16089,8090
13.23.13.966308,17931,9516,12252,10805,13131,17783,9643,10377,8796,9238,3238,3221
13.23.14.004894,3213,9522,12267,10781,16863,3315,9647,10387,8690,9730,9778,17893
13.23.14.042188,9548,9531,12259,10812,3187,3280,9642,10394,8980,9375,17928,17919
13.23.14.078059,13244,9539,12262,10805,4006,10281,9653,10388,8489,8977,17984,15340
13.23.14.115281,17942,9527,12272,10787,12730,17810,9656,10388,9649,9261,3240,3226
13.23.14.153820,3206,9536,12266,10799,17917,3944,9653,10392,8880,9845,3241,17908
13.23.14.190309,3955,9529,12284,10813,8736,3290,9663,10402,9287,9404,17940,17924
13.23.14.227713,12776,9538,12264,10810,6512,12213,9664,10383,8929,9277,15213,5776
13.23.14.266755,17955,9517,12266,10802,13347,17789,9654,10395,8872,9243,3238,3228
13.23.14.303599,3209,9534,12279,10806,17921,13194,9663,10393,8848,9479,3235,17907
13.23.14.340871,5810,9513,12264,10760,4248,3279,9657,10386,8897,9351,17937,17922
13.23.14.377997,13092,9534,12270,10788,3173,9679,9667,10391,8948,9141,17970,17980
13.23.14.414489,17964,9531,12278,10795,11855,15757,9667,10404,8920,9268,5565,3233
13.23.14.452398,5655,9524,12272,10793,17920,14637,9659,10406,8848,9480,3235,17920
13.23.14.490486,5831,9524,12260,10773,3679,3285,9655,10403,8950,9455,17930,17916
13.23.14.527163,12311,9511,12277,10797,3195,6436,9656,10390,8948,9319,17939,17946
13.23.14.563534,17004,9525,12262,10759,11399,13936,9651,10392,8864,9290,6767,3238
13.23.14.601416,13939,9528,12269,10804,15155,17809,9659,10386,8852,9187,3240,16206
13.23.14.640137,3633,9527,12277,10765,8790,3283,9653,10398,8972,9466,17931,17916
13.23.14.676789,11888,9522,12264,10763,4813,11274,9649,10398,8896,9222,17992,10952
13.23.14.715991,17935,9521,12260,10782,12788,17786,9651,10385,8939,9230,3239,3227
13.23.14.752832,3530,9525,12262,10796,17925,17301,9653,10388,8790,9283,3239,8405
13.23.14.789461,3209,9520,12261,10795,14492,3283,9654,10411,8959,9371,17925,17925
13.23.14.828017,13565,9534,12269,10777,4908,10309,9651,10386,8941,9131,17986,17957
13.23.14.865067,17934,9527,12256,10786,12155,17598,9660,10393,8855,9271,3238,3225
13.23.14.903741,3223,9524,12274,10781,17920,6448,9662,10391,8835,9566,3234,17917
13.23.14.941009,7099,9536,12275,10815,4011,3275,9658,10392,8975,9100,17964,17957
13.23.14.980408,17644,9523,12269,10765,11320,14071,9655,10396,8868,9289,5142,3226
13.23.15.019246,4378,9516,12265,10779,17915,14249,9658,10392,8836,9351,3226,17894
13.23.15.057037,4516,9509,12262,10750,8397,3280,9653,10387,8923,9473,17921,17903
13.23.15.094193,12671,9522,12254,10786,3157,9007,9646,10384,8832,9333,17958,17960
13.23.15.131488,17945,9515,12264,10799,12063,15488,9652,10380,8778,9274,8715,3223
13.23.15.167247,17484,9525,12256,10770,12924,17777,9639,10376,8797,9183,3233,3218
13.23.15.204140,3205,9526,12262,10780,17908,3965,9650,10384,8849,9312,3228,17894
13.23.15.241206,7320,9515,12270,10756,3177,4222,9646,10384,8920,9447,17916,17924
13.23.15.279569,15273,9522,12251,10744,8049,12461,9650,10381,8813,9283,11921,3225
13.23.15.316415,17925,9517,12247,10760,13194,17755,9640,10367,8800,9153,3228,3215
13.23.15.353962,3204,9509,12255,10773,16375,3267,9649,10373,9039,9354,7281,17878
13.23.15.391697,9073,9499,12252,10744,3159,3696,9635,10382,7282,9424,17900,17896
13.23.15.428188,13290,9508,12242,10805,7271,12682,9626,10365,8957,9302,11196,3214
13.23.15.467485,16375,9514,12240,10810,16571,17763,9636,10360,8790,9146,3226,3202
13.23.15.505060,3199,9498,12249,10808,16217,3262,9636,10361,7902,9446,11478,17882
13.23.15.542176,10038,9511,12241,10804,3159,5708,9635,10379,7571,9335,17910,17903
13.23.15.578874,13777,9515,12246,10777,10077,12724,9641,10366,8929,9329,13276,3213
13.23.15.617094,17711,9516,12233,10775,16045,17757,9648,10366,8791,9188,3226,3209
13.23.15.654613,3200,9529,12246,10767,16978,3265,9640,10373,8731,9550,17904,17898
13.23.15.693345,11837,9514,12226,10798,3186,9906,9641,10376,8920,9094,17953,17940
13.23.15.731899,17907,9520,12231,10792,12882,17322,9636,10378,8815,9282,6497,3216
13.23.15.768106,12351,9511,12238,10773,17615,15290,9652,10381,8817,9539,3229,17893
13.23.15.807459,6325,9509,12259,10755,3159,3365,9644,10393,8977,9287,17919,17911
13.23.15.843791,12430,9521,12235,10770,4536,10364,9645,10380,8934,9116,17972,12470
13.23.15.882318,17914,9514,12241,10795,12499,17697,9652,10383,8849,9289,4117,3222
13.23.15.919340,3670,9523,12249,10781,17900,9550,9651,10388,8824,9547,3226,17895
13.23.15.957708,7317,9520,12253,10816,3616,3274,9644,10390,8938,9492,17910,17901
13.23.15.992862,11308,9520,12235,10800,3163,6360,9643,10375,8919,9400,17931,17931
13.23.16.030409,17846,9511,12243,10738,11373,14168,9642,10382,8828,9255,4551,3230
13.23.16.068367,9309,9528,12226,10765,17229,17776,9648,10377,8842,9174,3239,3216
13.23.16.104888,3191,9519,12244,10745,13994,3277,9644,10383,8907,9435,17916,17905
13.23.16.142969,11557,9524,12236,10763,3164,6880,9640,10374,8961,9449,17932,17918
13.23.16.179127,13918,9514,12252,10770,9239,12862,9649,10371,9622,9312,13148,4217
13.23.16.216638,17936,9506,12242,10751,13254,17760,9637,10375,9532,9179,3218,3207
13.23.16.255251,3204,9491,12254,10747,10327,3271,9648,10378,9255,9394,17911,17908
13.23.16.292942,11622,9499,12242,10758,3156,6271,9645,10376,8931,9467,17938,17932
13.23.16.330258,17746,9508,12230,10796,9940,12915,9646,10377,8838,9287,11939,3215
13.23.16.367093,17448,9496,12252,10792,13739,17772,9653,10382,8828,9196,3225,3217
13.23.16.402605,3376,9523,12257,10781,17906,14752,9652,10371,8799,9132,3226,11529
13.23.16.439566,3294,9509,12242,10749,13404,3283,9648,10391,8821,9432,17918,17901
13.23.16.476884,12331,9505,12248,10776,3890,9836,9647,10383,8835,9410,17979,17371
13.23.16.515173,17917,9520,12241,10784,12928,3517,9649,10392,8732,9262,3227,17896
13.23.16.557755,7625,9518,12244,10768,3162,3277,9654,10392,8957,9454,17927,17921
13.23.16.595907,14459,9512,12247,10773,10074,14041,9653,10382,8805,9374,17920,9645
13.23.16.632129,17929,9519,12255,10766,12185,17587,9656,10394,9646,9259,11153,3222
13.23.16.668685,6007,9508,12252,10782,17918,17539,9659,10389,9276,9136,3235,17904
13.23.16.706620,3932,9503,12255,10765,8209,3304,9654,10393,8879,9422,17926,17911
13.23.16.744029,12768,9502,12243,10778,3903,10929,9645,10381,8859,9384,17981,11389
13.23.16.782556,17937,9500,12240,10776,12966,17744,9642,10380,8871,9197,3228,3222
13.23.16.821169,3218,9503,12239,10800,14280,3291,9655,10388,9189,9370,11152,17907
13.23.16.859218,11049,9498,12249,10776,3170,6998,9656,10391,8968,9506,17947,17945
13.23.16.896401,16516,9498,12242,10795,10871,13509,9660,10389,8849,9319,10212,3228
13.23.16.935228,6734,9529,12254,10805,17931,4491,9659,10390,8747,9303,4468,17910
13.23.16.975493,10417,9502,12258,10802,3165,3286,9660,10400,6900,9465,17944,17941
13.23.17.011920,13147,9514,12270,10767,9163,13085,9664,10393,8929,9414,16793,5880
13.23.17.049483,17959,9513,12261,10802,13535,17771,9657,10398,8861,9204,3240,3217
13.23.17.087713,3215,9510,12259,10800,16363,3287,9665,10401,8876,9395,11917,17918
13.23.17.126008,11286,9511,12269,10800,3164,5463,9661,10394,9094,9496,17943,17943
13.23.17.163645,17950,9508,12257,10818,10393,13420,9657,10391,8897,9359,12157,3226
13.23.17.200445,17036,9521,12254,10808,17310,17790,9660,10398,8823,9171,3240,10229
13.23.17.239246,3213,9507,12257,10796,7141,3284,9652,10395,8957,9445,17937,17930
13.23.17.278060,13259,9516,12261,10795,4017,10159,9658,10383,8911,9556,17957,17958
13.23.17.314160,17950,9507,12264,10779,12274,17468,9647,10391,8848,9319,9723,3229
13.23.17.350970,14290,9502,12248,10779,15962,17774,9649,10384,8796,9168,3229,17911
13.23.17.389810,3872,9497,12262,10769,12938,3277,9653,10380,8968,9404,17933,17909
13.23.17.426327,11887,9506,12250,10783,3173,5804,9653,10385,8949,9510,17967,17738
13.23.17.464763,17932,9483,12251,10813,12784,17778,9655,10388,8857,9135,3235,3380
13.23.17.510023,12343,9503,12245,10790,3231,7657,9653,10382,8966,9514,17958,17952
13.23.17.547308,17952,9499,12254,10763,11727,16106,9657,10394,8842,9278,4591,3225
13.23.17.586100,3200,9496,12245,10798,17918,8365,9657,10391,8844,9126,3240,17908
13.23.17.623711,5776,9520,12256,10793,5402,3293,9657,10398,8942,9406,17925,17912
13.23.17.660176,12427,9502,12245,10784,3172,7334,9648,10392,8972,9566,17957,17955
13.23.17.697197,17941,9509,12239,10753,11603,13861,9644,10392,8892,9319,9374,3221
13.23.17.734058,15406,9496,12241,10807,14263,17774,9654,10400,8847,9139,3232,10820
13.23.17.772603,3221,9507,12257,10769,13899,3288,9655,10401,8938,9366,16019,17927
13.23.17.809865,12077,9503,12246,10795,3169,8993,9658,10390,8957,9563,17967,17886
13.23.17.847812,17934,9509,12270,10824,12652,17767,9660,10391,8938,9261,3829,3226
13.23.17.885967,3256,9511,12260,10798,17913,12184,9659,10393,8870,9127,3231,17912
13.23.17.923604,5468,9502,12252,10818,3164,3267,9659,10401,8970,9448,17930,17927
13.23.17.961338,13291,9514,12235,10778,5996,11671,9646,10372,8939,9441,17975,14053
13.23.17.998767,17928,9493,12231,10786,12902,17777,9649,10377,8904,9223,3210,3211
13.23.18.036471,3196,9496,12241,10781,17850,5241,9654,10392,8779,9207,3207,17906
13.23.18.074539,8719,9502,12251,10825,3604,3267,9647,10396,8965,9458,17929,17933
13.23.18.111913,13779,9501,12252,10791,9389,13066,9650,10388,8899,9320,10795,3213
13.23.18.150052,17688,9484,12245,10800,14441,17758,9651,10396,8817,9185,3223,3207
13.23.18.187291,3200,9493,12250,10804,17915,5788,9649,10388,8834,9176,3208,17903
13.23.18.223778,6222,9496,12253,10755,3154,3534,9656,10390,8936,9446,17928,17931
13.23.18.261610,13323,9507,12246,10805,5477,11231,9649,10385,8929,9458,17989,8003
13.23.18.298614,17940,9499,12247,10756,12865,17783,9664,10390,8884,9217,3215,3208
13.23.18.336793,3195,9498,12251,10782,17672,3256,9648,10389,8894,9316,10356,17905
13.23.18.375570,11061,9498,12248,10767,3156,3747,9650,10390,8947,9570,17941,17946
13.23.18.413269,17481,9495,12248,10816,9975,13319,9657,10391,8923,9333,12597,3212
13.23.18.450859,14411,9495,12250,10778,17759,17776,9654,10388,8817,9089,3227,17898
13.23.18.490166,5356,9502,12241,10814,3162,3410,9649,10393,8948,9519,17928,17927
13.23.18.528919,14198,9506,12245,10756,6224,11687,9644,10388,8929,9491,17979,17247
13.23.18.564936,17934,9500,12239,10763,12400,17800,9656,10391,8819,9262,3225,3213
13.23.18.602799,3196,9509,12231,10789,17911,14359,9647,10396,8849,9107,3213,17903
13.23.18.640601,7157,9504,12247,10753,5797,3279,9653,10395,8932,9451,17927,17918
13.23.18.676566,12249,9506,12241,10778,3411,9666,9645,10382,8951,9593,17947,17951
13.23.18.713611,17955,9506,12258,10794,10102,13391,9653,10389,8783,9348,11615,3215
13.23.18.750706,15016,9504,12232,10788,14029,17756,9645,10383,8817,9177,3231,3857
13.23.18.788462,3196,9509,12254,10786,10513,3276,9649,10398,8930,9355,9489,17914
13.23.18.825994,11776,9494,12254,10792,3163,6528,9661,10402,8939,9598,17955,17956
13.23.18.862796,16341,9527,12271,10803,10226,13047,9667,10411,8918,9382,16157,3233
13.23.18.899611,17967,9508,12274,10797,13094,17780,9656,10406,8851,9191,3234,3223
13.23.18.937689,3215,9512,12278,10806,17935,4949,9661,10405,8842,9162,3238,17930
13.23.18.973968,7488,9512,12270,10811,6464,3283,9665,10412,8984,9449,17948,17939
13.23.19.010904,12983,9510,12254,10783,7183,11491,9664,10398,8928,9426,16325,4266
13.23.19.049238,17945,9493,12246,10789,12704,17780,9652,10397,8918,9277,6062,3222
13.23.19.084794,8286,9507,12247,10802,17920,17023,9658,10400,8847,9119,3237,17915
13.23.19.122929,3870,9501,12257,10757,5345,3273,9662,10406,8957,9470,17940,17921
13.23.19.160458,12869,9503,12253,10782,6090,10818,9661,10396,8913,9524,17949,8906
13.23.19.198272,17937,9495,12265,10799,12812,17794,9665,10403,8844,9314,7766,3222
13.23.19.235021,6203,9510,12277,10795,17912,11349,9664,10408,8842,9106,3238,17911
13.23.19.272665,3493,9504,12256,10783,11044,3294,9663,10409,8958,9357,17941,17921
13.23.19.309265,11602,9522,12245,10809,3707,8807,9666,10395,8926,9553,17968,17975
13.23.19.347099,17951,9505,12255,10807,11411,14400,9653,10402,8845,9320,8889,3235
13.23.19.384304,11649,9515,12266,10789,14633,17769,9663,10398,8811,9166,3239,3206
13.23.19.421216,3210,9513,12264,10801,16745,3437,9663,10404,8936,9216,3224,17910
13.23.19.456852,5987,9504,12256,10830,3190,3279,9661,10414,8919,9476,17940,17932
13.23.19.493885,12852,9496,12265,10797,3233,8620,9663,10408,8950,9512,17988,13323
13.23.19.532216,17948,9501,12269,10798,12373,17803,9658,10405,8838,9266,4010,3226
13.23.19.569101,3237,9506,12249,10806,17936,8547,9664,10406,8867,9145,3217,17918
13.23.19.608344,10202,9532,12261,10827,3222,3280,9664,10419,8915,9612,17947,17946
13.23.19.645828,15435,9538,12259,10829,9837,13037,9677,10411,8935,9443,14372,3233
13.23.19.682907,17983,9536,12274,10800,13279,17788,9671,10413,8897,9228,3251,3235
13.23.19.720776,3217,9500,12277,10826,16312,3288,9672,10421,8960,9301,10627,17918
13.23.19.758770,11055,9517,12275,10826,3182,4648,9670,10407,8926,9547,17951,17946
13.23.19.795472,14146,9517,12273,10824,10093,13616,9673,10411,8937,9388,10444,3230
13.23.19.833310,17283,9528,12271,10790,12918,17793,9667,10406,8823,9224,3234,3236
13.23.19.869627,3216,9515,12260,10806,17928,7720,9668,10407,8869,9112,3229,17914
13.23.19.907293,7619,9514,12274,10784,3178,3284,9668,10418,8971,9627,17946,17954
13.23.19.945952,16095,9514,12274,10788,10630,13564,9677,10413,8931,9381,9838,3234
13.23.19.984101,13455,9512,12258,10805,17924,17771,9673,10413,8852,9092,3248,17915
13.23.20.023222,5078,9502,12265,10776,3175,3277,9664,10412,8971,9463,17941,17944
13.23.20.061114,13058,9521,12255,10837,7965,11938,9670,10409,8947,9502,17993,15238
13.23.20.098210,17939,9519,12280,10790,12710,17797,9680,10401,8889,9269,3455,3226
13.23.20.135905,3210,9508,12266,10802,17903,5087,9669,10404,8864,9105,3224,17899
13.23.20.174790,9827,9508,12247,10764,3183,3532,9665,10423,8940,9568,17945,17932
13.23.20.211038,13209,9514,12252,10766,5211,11167,9665,10405,8921,9480,17986,11518
13.23.20.248719,17947,9507,12261,10828,12640,17794,9679,10415,8896,9315,4221,3256
13.23.20.285394,3766,9548,12278,10831,17713,17808,9683,10432,8849,9167,3270,11427
13.23.20.321712,3245,9535,12276,10832,13591,3320,9680,10425,8953,9367,17946,17930
13.23.20.359695,12130,9532,12277,10783,6269,11594,9689,10418,8938,9442,14821,3242
13.23.20.399452,17929,9538,12272,10800,13238,17783,9682,10407,8864,9224,3250,3251
13.23.20.435733,3239,9526,12266,10814,17920,9474,9677,10409,8854,9101,3252,17911
13.23.20.473883,7695,9520,12279,10821,3191,4444,9677,10416,8979,9639,17946,17947
13.23.20.511616,13432,9532,12268,10804,5845,11435,9683,10408,8949,9590,17972,17981
13.23.20.547433,17951,9533,12259,10840,12216,17618,9688,10422,8857,9348,5608,3247
13.23.20.585150,4564,9529,12273,10803,17922,3308,9685,10423,8933,9168,3767,17921
13.23.20.625200,10825,9524,12280,10773,3186,5190,9682,10419,8891,9684,17957,17956
13.23.20.662939,17429,9530,12270,10770,11269,13583,9683,10420,9575,9379,7901,3245
13.23.20.700754,12748,9538,12266,10789,13166,17794,9677,10407,8843,9223,3249,3234
13.23.20.736605,3226,9525,12264,10798,17929,6912,9684,10415,8863,9086,3255,17908
13.23.20.773000,4870,9516,12266,10772,3189,3297,9679,10427,8965,9523,17932,17932
13.23.20.810369,12735,9530,12265,10786,3727,9223,9686,10413,8982,9673,17964,17958
13.23.20.847265,17951,9532,12253,10766,11822,14103,9682,10419,8938,9332,5761,3244
13.23.20.884255,11075,9549,12294,10792,15586,17790,9681,10404,8861,9157,3255,4222
13.23.20.921814,3234,9531,12276,10781,15925,3292,9678,10416,8828,9268,5531,17916
13.23.20.957720,9364,9527,12278,10784,4330,3295,9681,10419,8959,9450,17937,17934
13.23.20.993849,13062,9530,12257,10803,8080,12404,9688,10415,8871,9538,17984,17390
13.23.21.030993,17938,9524,12277,10785,12477,17780,9676,10402,8906,9312,3265,3239
13.23.21.069351,3228,9525,12260,10801,17917,10638,9675,10407,8838,9118,3240,17905
13.23.21.107450,8631,9519,12262,10777,3189,3302,9673,10417,8950,9633,17926,17928
13.23.21.145436,15456,9525,12261,10770,7974,12495,9673,10408,9117,9466,16848,4115
13.23.21.182347,17946,9510,12265,10797,12272,17794,9670,10414,9886,9330,5347,3239
13.23.21.218403,4464,9492,12268,10808,17941,12718,9670,10416,8858,9077,3229,17924
13.23.21.256947,7535,9495,12260,10815,3169,9420,9658,10404,9033,9707,17962,17956
13.23.21.295799,16011,9494,12265,10815,10745,13668,9673,10409,9508,9368,7288,3221
13.23.21.334245,10555,9499,12258,10800,17541,17801,9656,10404,8407,9168,3228,4918
13.23.21.371516,3199,9497,12264,10775,10046,3286,9655,10413,8681,9277,14191,17919
13.23.21.409140,11793,9493,12258,10806,3156,5822,9655,10398,8904,9703,17950,17962
13.23.21.446693,17953,9488,12247,10764,12124,16006,9658,10398,8770,9363,11130,3208
13.23.21.483229,16882,9490,12254,10793,13405,17759,9649,10380,8663,9175,3221,3205
13.23.21.520313,3202,9476,12246,10776,17896,5400,9648,10393,9008,9033,3213,17897
13.23.21.556946,7425,9471,12251,10795,3154,4084,9652,10390,8807,9648,17918,17900
13.23.21.595332,14515,9475,12233,10758,10346,13274,9638,10364,8603,9348,9572,3192
13.23.21.632829,17779,9461,12218,10765,13646,17715,9616,10351,8501,9153,3193,3176
13.23.21.670765,3167,9444,12193,10710,12622,3234,9618,10350,8713,9170,6027,17814
13.23.21.707821,9819,9432,12186,10715,3122,3834,9602,10334,7566,9590,17857,17858
13.23.21.746023,17123,9445,12203,10719,11071,13420,9612,10343,8937,9317,8035,3177
13.23.21.784311,9446,9439,12187,10694,17729,17337,9602,10328,8745,9019,3185,17821
13.23.21.822768,4642,9447,12211,10754,8881,3245,9600,10352,7269,9318,17875,17859
13.23.21.859872,12516,9456,12196,10785,3134,9607,9628,10363,9334,9593,17930,17208
13.23.21.897751,17891,9458,12205,10754,12601,17719,9638,10367,8632,9159,3208,3189
13.23.21.936563,3176,9466,12234,10772,17803,5336,9634,10375,8758,9042,3206,17872
13.23.21.972661,4273,9468,12227,10784,4077,3255,9639,10385,8894,9479,17897,17890
13.23.22.010913,13268,9481,12227,10811,7443,11885,9644,10367,8839,9609,17934,17930
13.23.22.047015,17910,9472,12223,10762,11997,15968,9643,10381,8856,9319,5083,3204
13.23.22.085028,4195,9470,12251,10763,17889,5752,9631,10389,8858,9090,3207,17879
13.23.22.123423,6802,9469,12241,10760,3141,3243,9634,10378,8864,9530,17907,17908
13.23.22.161561,13565,9481,12238,10799,6996,11809,9640,10380,8834,9435,17146,8334
13.23.22.198797,17927,9471,12226,10771,13519,17745,9642,10385,8806,9193,3213,3169
13.23.22.236749,3158,9428,12206,10751,17883,5214,9610,10357,8572,9097,5638,17874
13.23.22.274152,9098,9446,12231,10757,3107,4080,9613,10369,9377,9666,17901,17912
13.23.22.312433,16395,9449,12205,10724,11169,13220,9624,10350,8762,9314,9024,3176
13.23.22.350183,14636,9452,12225,10745,13749,17726,9617,10346,8640,9134,3177,3157
13.23.22.386737,3155,9439,12221,10748,17866,9692,9613,10346,8933,9012,3173,17864
13.23.22.422793,5064,9465,12213,10731,5054,3226,9620,10357,8769,9393,17878,17867
13.23.22.459137,11861,9441,12215,10735,3103,8787,9600,10338,8788,9644,17889,17891
13.23.22.495772,16589,9446,12207,10711,10372,12847,9610,10353,8759,9366,14454,6649
13.23.22.531624,17876,9451,12191,10739,12608,17736,9612,10356,8680,9202,3257,3157
13.23.22.568331,3725,9433,12186,10724,16674,17713,9610,10334,8561,9125,3178,12347
13.23.22.605447,3330,9433,12206,10732,8017,3223,9606,10343,9016,9321,17849,17846
13.23.22.643074,12480,9432,12170,10681,4661,10857,9592,10309,8814,9502,17870,16994
13.23.22.680850,17811,9393,12143,10663,12429,17299,9545,10251,8751,9146,3138,3131
13.23.22.719348,3120,9400,12180,10715,17786,13947,9574,10288,8603,8936,3143,17772
13.23.22.756389,5983,9381,12107,10659,3072,3172,9550,10277,8788,9439,17759,17754
13.23.22.793871,13085,9371,12094,10623,5119,11384,9537,10248,8979,9307,17675,9869
13.23.22.831921,17601,9238,11905,10471,12544,17383,9425,10109,8497,9016,2994,3012
13.23.22.868818,3006,9269,11954,10527,17574,5043,9465,10175,8656,8855,3083,17588
13.23.22.907610,9409,9272,11960,10502,2983,3244,9440,10116,8549,9420,17599,17581
13.23.22.945623,15844,9210,11952,10555,9380,12997,9493,10163,8518,9229,15477,8882
13.23.22.981448,17679,9275,11996,10510,12116,17398,9452,10180,8152,9154,3135,3121
13.23.23.019422,3119,9352,12143,10643,17770,11903,9560,10283,7930,9136,3142,17743
13.23.23.056574,6902,9357,12117,10654,4412,3183,9555,10282,6935,9703,17673,17619
13.23.23.093525,12308,9276,12008,10549,6325,12343,9421,10080,8771,9260,16909,13437
13.23.23.130975,17623,9289,12020,10583,12035,17462,9486,10157,8329,8999,4559,3057
13.23.23.167372,9815,9296,11989,10530,16421,17466,9477,10189,8281,9024,3076,15963
13.23.23.205513,3456,9266,11992,10504,5633,3100,9428,10137,6758,9096,17687,17726
13.23.23.241581,10793,9340,12087,10626,3059,4087,9552,10287,7164,9479,17735,17722
13.23.23.277115,12824,9349,12091,10647,5523,11453,9547,10242,8609,9677,17643,13729
13.23.23.314843,17634,9272,12002,10563,12148,17516,9504,10230,8463,8948,4503,3080
13.23.23.352455,3062,9291,11963,10492,17515,6006,9461,10146,8428,8742,3317,17683
13.23.23.390172,7751,9345,12086,10632,3065,3170,9540,10283,8547,9351,17766,17774
13.23.23.428242,13824,9381,12143,10675,9757,13024,9584,10297,8529,9402,14980,6307
13.23.23.465337,17810,9375,12154,10711,12748,17654,9571,10291,8533,9211,3141,3128
13.23.23.503093,3109,9370,12130,10630,17749,6279,9548,10284,8611,9200,3134,17749
13.23.23.540512,8735,9370,12108,10594,3027,4128,9487,10214,8742,9350,17719,17678
13.23.23.578465,14378,9313,12082,10630,10647,13268,9550,10277,8579,9394,9964,3141
13.23.23.616711,14124,9380,12152,10711,14563,17627,9561,10278,8366,9308,3135,3112
13.23.23.653855,3112,9361,12125,10677,16386,3307,9589,10341,8750,8920,11235,17792
13.23.23.691214,10474,9392,12195,10680,3087,4478,9584,10317,7414,9565,17831,17842
13.23.23.729440,17823,9398,12187,10727,11399,13397,9587,10335,8784,9289,7060,3142
13.23.23.767570,7537,9385,12164,10694,17782,17081,9589,10309,8905,9049,3151,14386
13.23.23.804999,3133,9394,12192,10696,9319,3199,9583,10329,8636,9259,17830,17816
13.23.23.843324,13027,9394,12150,10727,3297,9756,9580,10319,7848,9586,17851,17856
13.23.23.879835,17832,9385,12146,10657,11793,16062,9574,10309,8770,9248,4456,3131
13.23.23.918898,3109,9376,12141,10642,17770,14582,9554,10299,8991,8851,3139,17794
13.23.23.956602,7576,9377,12138,10634,5749,3164,9544,10272,8867,9525,17748,17756
13.23.23.993818,13102,9367,12161,10623,8091,12627,9559,10297,8627,9366,17217,7997
13.23.24.031090,17832,9377,12161,10689,12603,17703,9585,10308,8540,9077,3140,4418
13.23.24.071261,3114,9367,12163,10707,11187,3199,9571,10304,8645,9352,17804,17800
13.23.24.110014,12695,9378,12128,10646,6845,10866,9573,10282,8961,9867,17770,17771
13.23.24.145940,17488,9365,12089,10624,10651,13718,9558,10290,8631,9108,10710,3116
13.23.24.182778,16651,9370,12141,10668,12676,17645,9572,10323,8654,9123,4060,3167
13.23.24.217679,6213,9397,12190,10752,17822,17687,9593,10319,8830,8985,3179,17813
13.23.24.255277,3589,9395,12142,10665,9133,3157,9489,10170,8569,9374,17581,17584
13.23.24.292704,12195,9277,12001,10559,3023,7881,9569,10290,8648,9662,17823,17830
13.23.24.329082,17161,9367,12070,10596,10178,13197,9484,10200,8570,9385,9026,3088
13.23.24.365884,17377,9362,12119,10714,13631,17674,9575,10310,8586,9032,3157,3310
13.23.24.404072,3136,9391,12191,10682,16394,3193,9575,10310,8652,9180,16383,17796
13.23.24.441781,11210,9379,12128,10706,3082,6997,9564,10303,8624,9611,17830,17841
13.23.24.478777,16455,9402,12155,10694,10660,13362,9566,10309,8792,9327,12394,3143
13.23.24.516271,16136,9394,12180,10672,13180,17687,9588,10327,8642,9105,3175,3165
13.23.24.552882,3156,9411,12205,10745,17860,3868,9607,10351,8756,8996,3172,13579
13.23.24.588644,3862,9414,12229,10723,11195,3228,9612,10362,8811,9462,17881,17875
13.23.24.625843,12352,9395,12209,10739,3751,8787,9613,10367,9174,9619,17928,17913
13.23.24.664680,17882,9390,12209,10729,12298,17760,9614,10357,8827,9316,5913,3178
13.23.24.700584,8983,9405,12227,10761,17665,16745,9618,10350,8767,9073,3179,12724
13.23.24.737818,3148,9384,12209,10738,12516,3234,9621,10368,8873,9307,17798,17883
13.23.24.774781,10989,9412,12241,10767,3127,7555,9636,10374,8921,9726,17936,17944
13.23.24.811924,16255,9421,12247,10766,8761,12249,9645,10390,8737,9628,17939,17623
13.23.24.847539,17911,9416,12231,10755,12384,17770,9626,10377,8713,9167,3189,3171
13.23.24.886046,3171,9421,12247,10755,17912,3250,9641,10405,8600,9165,8310,17911
13.23.24.924095,10053,9424,12252,10773,3134,3913,9637,10390,8729,9484,17914,17897
13.23.24.959509,12428,9449,12255,10772,5699,11330,9644,10366,8368,9574,17970,16725
13.23.24.997679,17930,9420,12232,10765,12816,17778,9646,10390,8752,9268,4493,3175
13.23.25.034816,3560,9416,12234,10758,17838,17764,9636,10380,8543,9095,3204,10613
13.23.25.071464,3208,9431,12249,10764,14704,3244,9641,10395,8725,9186,13800,17906
13.23.25.108234,11284,9436,12257,10774,4091,10976,9637,10376,8412,9597,17986,17979
13.23.25.146495,17946,9444,12267,10780,11774,16062,9649,10391,8768,9298,4819,3181
13.23.25.184454,4656,9432,12244,10763,17918,16202,9650,10398,8777,9020,3210,17902
13.23.25.222027,4269,9454,12265,10775,12137,3255,9646,10393,9046,9218,17929,17906
13.23.25.258621,11521,9427,12252,10767,3473,9498,9634,10387,8887,9665,17980,17973
13.23.25.296122,17955,9439,12273,10779,11324,14115,9656,10398,8850,9313,4768,3209
13.23.25.334160,6212,9475,12255,10790,17933,16649,9654,10395,8784,8990,3193,17908
13.23.25.373515,8940,9426,12260,10768,3135,4205,9642,10393,8737,9688,17947,17952
13.23.25.411025,13428,9450,12272,10775,9673,12850,9655,10409,9011,9476,15690,4416
13.23.25.448550,17976,9466,12276,10765,12619,17802,9644,10391,8731,9191,3200,3187
13.23.25.485861,3180,9440,12267,10775,17928,12352,9650,10399,8804,8980,3200,17921
13.23.25.522163,4684,9448,12265,10766,3523,3246,9641,10415,8804,9520,17941,17944
13.23.25.559939,12868,9446,12257,10771,6556,10744,9648,10401,8708,9533,18003,12974
13.23.25.597787,17966,9454,12276,10777,12353,17826,9659,10411,8791,9281,4323,3203
13.23.25.633977,7512,9455,12264,10785,17478,17818,9659,10401,8980,9087,3212,11081
13.23.25.671561,3503,9449,12275,10786,9795,3259,9658,10416,8244,9381,17952,17947
13.23.25.710015,12962,9447,12273,10768,6436,11130,9653,10400,8846,9503,17156,3883
13.23.25.747740,17968,9449,12261,10779,12833,17805,9646,10406,9263,9201,3212,3199
13.23.25.785563,3185,9447,12266,10789,17943,6123,9659,10406,8657,8986,3209,17927
13.23.25.823403,8956,9438,12279,10787,3141,6338,9650,10407,8772,9716,17975,17975
13.23.25.862580,17937,9446,12273,10777,11754,13899,9668,10415,8774,9309,7449,3201
13.23.25.900461,8398,9467,12288,10786,16313,17823,9666,10414,8711,9134,3212,3408
13.23.25.937288,3191,9456,12294,10778,15330,3254,9663,10425,8828,9095,9902,17943
13.23.25.974404,10587,9452,12272,10797,3142,8084,9658,10415,9182,9657,18016,17009
13.23.26.013898,17967,9458,12277,10781,12555,17842,9664,10431,8799,9253,4805,3203
13.23.26.050343,9178,9458,12281,10796,14616,17824,9657,10413,8634,9145,3213,3188
13.23.26.087361,3184,9451,12286,10774,12052,3250,9659,10418,8681,9233,17967,17927
13.23.26.125071,11864,9461,12274,10789,3137,6883,9652,10405,7714,9730,17981,17980
13.23.26.162019,16858,9462,12283,10785,10745,13357,9659,10411,8834,9321,7352,3204
13.23.26.199738,13920,9461,12261,10785,16558,17822,9655,10410,8563,9079,3218,17932
13.23.26.238683,4877,9457,12273,10792,8484,3259,9656,10419,7432,9354,17963,17947
13.23.26.275690,12297,9448,12263,10789,4651,9955,9662,10412,8351,9647,18019,15063
13.23.26.313746,17973,9447,12268,10788,12641,17821,9654,10399,8958,9171,3207,3198
13.23.26.352272,3194,9457,12270,10776,17950,10817,9659,10413,8859,8988,3204,17933
13.23.26.388986,5783,9459,12276,10789,7952,3255,9656,10400,8882,9329,17952,17942
13.23.26.425825,12319,9453,12282,10780,5564,11386,9651,10402,8812,9580,18013,7714
13.23.26.464381,17977,9452,12271,10803,12259,17553,9662,10404,8806,9231,3208,3196
13.23.26.501555,3191,9467,12284,10795,17945,9627,9662,10413,8904,8987,3213,17937
13.23.26.539969,8769,9451,12277,10794,3156,3255,9668,10416,8941,9517,17965,17966
13.23.26.576521,12792,9471,12294,10797,8065,11998,9673,10413,8839,9580,18014,17526
13.23.26.613970,17969,9466,12277,10785,12407,17806,9657,10397,8783,9225,3204,3202
13.23.26.651666,3190,9462,12273,10792,17928,10440,9661,10417,8877,8972,3212,17929
13.23.26.688295,3895,9472,12276,10779,3982,3254,9661,10409,8929,9453,17937,17937
13.23.26.726709,13084,9467,12266,10777,8804,11783,9659,10398,9006,9483,14206,5845
13.23.26.764309,17946,9458,12258,10785,12353,17812,9661,10403,8801,9227,3745,3209
13.23.26.801027,4356,9457,12270,10804,17943,15886,9672,10409,8552,9041,3216,17918
13.23.26.838333,3946,9451,12270,10789,5670,3268,9653,10417,8909,9413,17947,17937
13.23.26.876124,12689,9460,12261,10774,7082,11743,9655,10397,8832,9598,17993,17976
13.23.26.913018,17950,9463,12277,10778,12212,17051,9656,10402,8793,9199,3207,3196
13.23.26.951976,3189,9452,12267,10780,17479,3334,9655,10396,8822,9059,6698,17922
13.23.26.990576,10250,9444,12265,10787,3137,5819,9659,10404,8828,9537,17956,17956
13.23.27.027852,13945,9451,12271,10775,7648,12326,9656,10399,9042,9507,16117,3200
13.23.27.065537,17198,9457,12252,10774,13993,17792,9658,10402,8701,9175,3210,3203
13.23.27.102194,3180,9466,12272,10787,17928,7048,9664,10404,8668,9022,3222,17913
13.23.27.138801,5483,9470,12273,10777,3797,3879,9650,10385,8848,9440,17930,17927
13.23.27.176831,13034,9473,12251,10776,5115,11413,9648,10388,8831,9587,17990,17953
13.23.27.213041,17940,9462,12263,10775,12187,15757,9653,10400,8850,9305,7494,3204
13.23.27.250389,7750,9455,12242,10767,17903,15593,9635,10373,8557,9063,3207,8727
13.23.27.287749,3189,9443,12252,10751,6316,3244,9641,10394,8810,9436,17922,17921
13.23.27.326988,13015,9457,12262,10766,5993,11035,9644,10386,8917,9659,17972,14774
13.23.27.363823,17931,9457,12247,10776,12069,17520,9649,10399,9299,9170,3208,3194
13.23.27.403036,3184,9445,12237,10753,15647,3237,9640,10385,8603,9162,17871,17899
13.23.27.441863,12060,9454,12252,10773,3136,6719,9632,10372,8917,9703,17913,17919
13.23.27.478775,17546,9439,12241,10767,9543,13024,9638,10377,8793,9379,10353,3192
13.23.27.516094,14691,9451,12248,10761,13319,17751,9638,10376,8691,9073,3185,3165
13.23.27.552383,3166,9438,12217,10742,15653,3224,9636,10361,8662,9333,9887,17877
13.23.27.590498,10205,9433,12224,10737,3127,4361,9619,10368,8841,9364,17902,17899
13.23.27.627573,13522,9433,12219,10752,10690,13180,9630,10382,8729,9301,8499,3184
13.23.27.666776,8911,9439,12243,10741,17878,17577,9632,10374,8474,9166,3188,15493
13.23.27.704514,3821,9442,12238,10738,12330,3232,9625,10370,8775,9432,17904,17883
13.23.27.742283,12163,9447,12231,10744,7123,11881,9629,10361,8733,9313,15719,3216
13.23.27.782035,17399,9447,12230,10757,12659,17759,9631,10376,8709,9231,3215,3183
13.23.27.818462,3173,9455,12236,10750,17902,7648,9629,10368,8874,9290,3209,17900
13.23.27.856270,8548,9460,12239,10764,3138,3292,9645,10389,9133,9444,17929,17925
13.23.27.894146,13453,9448,12244,10740,7585,11732,9656,10393,9226,9387,17283,5883
13.23.27.931503,17962,9458,12258,10756,13369,17792,9666,10400,8727,9189,3229,3210
