13.36.28.986162,12226,12808,18695,10641,19780,13261,11736,24037,5924,12518,13882,24167
13.36.29.022706,15331,10771,8161,12204,19808,12853,24019,15796,7439,13137,13971,12361
13.36.29.059043,15951,10249,7950,12522,19800,17381,21139,205,15544,12893,21498,254
13.36.29.095136,8142,13332,13675,12233,19771,13736,147,8867,13359,13088,19859,4443
13.36.29.132405,10987,12989,14122,12477,19751,7659,10635,12113,17488,11396,207,24171
13.36.29.169531,12142,12792,18608,10671,19735,13280,11040,24034,6290,13064,14334,17961
13.36.29.208662,16716,10083,7995,12501,19796,16710,4621,796,14422,12709,24174,245
13.36.29.246189,5786,13854,14104,12260,19724,11938,150,13276,12552,12802,12650,24181
13.36.29.283027,11675,12742,18824,11560,19741,11048,11207,11743,14051,11069,2743,24170
13.36.29.321271,12011,12127,13376,11169,19749,13125,19369,23839,5435,13111,14038,15985
13.36.29.358718,16786,10131,7453,12588,19788,17734,18863,206,15310,12842,23700,247
13.36.29.396285,5593,13873,14056,12439,19697,7537,1171,14042,12954,12319,285,24168
13.36.29.435214,12383,12554,21179,10987,19727,13258,11067,24073,8075,11559,13668,24170
13.36.29.472907,16591,10211,4358,12686,19772,14155,24025,184,14456,12926,14177,259
13.36.29.511636,8755,13566,13922,12143,19713,12993,148,10531,13144,13057,15921,17143
13.36.29.549050,10917,13102,13599,12708,19724,8598,11063,11852,16888,11303,209,24176
13.36.29.586144,12322,12731,20272,10951,19714,13081,11523,24075,8278,11979,13476,24164
13.36.29.623386,17477,10099,3435,12713,19766,16550,24026,254,15081,12826,16556,258
13.36.29.661590,7902,13789,14140,12484,19673,9265,516,13902,12623,12251,5934,24183
13.36.29.699941,11902,12727,18292,11836,19727,12121,12386,17841,14707,11108,2049,24177
13.36.29.737887,11915,12468,12892,11246,19757,12804,21231,23186,5603,13004,13969,11568
13.36.29.775397,17033,10071,7187,12655,19763,16905,23262,204,15217,12933,16394,253
13.36.29.811709,8541,13367,13902,12247,19686,11350,147,12271,12756,13135,15298,18522
13.36.29.849876,11815,12761,19238,11326,19707,12558,12451,21125,11627,11321,8563,24174
13.36.29.887819,11966,12280,13970,11030,19733,12879,23658,20690,5971,13099,14433,24171
13.36.29.924792,18468,9949,4834,12594,19745,16999,23189,198,15088,12878,21849,257
13.36.29.962260,6554,13870,13996,12392,19656,9073,444,13982,13217,12045,1183,24189
13.36.30.000989,12233,12487,20791,11643,19697,11308,11693,12572,15084,11076,2132,24171
13.36.30.038316,12054,11413,11052,11541,19721,12959,22474,22583,6297,13032,14436,20660
13.36.30.075449,17703,9987,6035,12528,19736,17427,14796,211,14899,12824,24172,244
13.36.30.113610,4308,13886,13994,12922,19634,9697,162,12962,12539,12883,20859,236
13.36.30.148203,7375,13485,13481,13043,19645,12673,12603,11635,16033,11491,212,24180
13.36.30.187219,11918,12552,15791,11335,19684,12863,22729,23720,5897,12826,14511,23366
13.36.30.224879,20244,9945,3556,12665,19724,15105,23979,229,13329,13097,13574,270
13.36.30.261418,9418,12714,13318,12271,19683,15012,146,209,13574,13029,24020,240
13.36.30.298807,9499,12821,19262,11561,19647,13068,11314,23931,9508,10689,7125,24174
13.36.30.337930,11928,11691,11939,10952,19656,13275,15909,23714,6351,12315,14435,24169
13.36.30.374591,20580,9935,3484,12757,19715,15795,23986,218,14997,13085,19514,265
13.36.30.411944,6933,10811,13818,12296,19679,14606,150,4672,13578,13394,20246,10939
13.36.30.448723,9432,13712,13712,13036,19626,7568,7988,12291,16743,12042,206,24174
13.36.30.486478,12224,12911,16094,10586,19653,13279,22193,23946,6247,12968,13894,12493
13.36.30.525343,18378,10076,7202,12113,19719,15521,24031,213,14583,12991,13863,264
13.36.30.561004,11245,12226,13206,11966,19678,14228,145,5208,13765,12987,24175,238
13.36.30.598198,7712,13451,13436,12989,19616,7279,8193,12685,15782,11874,214,24183
13.36.30.634755,12470,12479,21045,10893,19638,13112,11617,23263,11314,10538,4488,24166
13.36.30.671564,12068,11952,13222,10629,19680,13082,20834,23974,6008,12835,14532,24180
13.36.30.707908,19360,9866,5020,12736,19690,16997,23870,212,14880,12710,23603,256
13.36.30.746125,4731,13954,13875,12537,19591,8181,152,13884,12602,12995,3171,24179
13.36.30.784395,11476,12566,20680,11539,19644,12022,12950,17239,13199,10660,4097,24170
13.36.30.821798,12633,12693,10322,11055,19673,12832,23983,23113,6512,12729,14161,16943
13.36.30.859477,16639,10370,11243,12269,19683,17423,9826,236,14187,12737,24187,253
13.36.30.897066,3388,13754,14067,12611,19530,9996,172,13238,12620,14101,10749,24193
13.36.30.933877,12056,12617,23801,11268,19543,12994,11658,17619,12083,10499,9101,24171
13.36.30.972540,14991,10981,5850,12480,19625,13162,23761,14616,12406,13027,11969,271
13.36.31.010020,15395,10611,9119,12422,19644,18595,11054,246,14391,12569,24169,259
13.36.31.046878,2278,13873,14153,12895,19506,6389,182,2923,13001,13775,2143,24184
13.36.31.086851,12285,9502,18406,10592,19539,13449,9519,23686,9156,9998,8852,24172
13.36.31.123014,17927,10594,2470,12373,19609,12967,23812,12493,10282,12709,12629,272
13.36.31.160887,12229,12351,12241,12266,19636,15723,162,203,13627,12948,22604,24188
13.36.31.199144,10290,12987,14542,12902,19568,9852,11357,11401,15576,11156,214,19044
13.36.31.236840,12256,12953,17571,10689,19557,13217,10047,23821,8013,11524,13487,20611
13.36.31.273950,19268,10157,2329,12647,19662,14018,23936,2115,12169,13080,13076,262
13.36.31.310715,12714,13741,13986,12467,19545,10349,165,12743,12498,13593,17134,14009
13.36.31.349012,10122,13028,13945,13099,19544,6871,6622,12563,16667,11642,227,24181
13.36.31.386972,12126,12894,15519,10765,19593,13314,11383,23876,6444,12628,14503,22283
13.36.31.425096,18680,9916,3860,12828,19636,15257,23954,202,13248,13159,12462,258
13.36.31.461231,10664,12078,13674,12262,19571,10336,152,13560,12516,13563,11922,22871
13.36.31.500299,12083,12741,20362,11547,19574,11881,10667,11742,14556,10998,210,24172
13.36.31.537346,11535,12465,15134,10398,19547,13261,18066,23703,6035,12403,15340,23102
13.36.31.574931,19666,9144,2368,12913,19637,13829,23852,4707,12298,13007,11817,270
13.36.31.610825,12600,11040,11422,12347,19602,15690,165,231,14096,12874,24180,253
13.36.31.648090,5740,13675,13665,13054,19496,7815,161,17927,12256,13999,12897,24193
13.36.31.683992,12318,12867,18339,12258,19498,8928,8447,198,16901,11963,237,24187
13.36.31.718775,12812,12642,21375,10375,19521,13318,12127,23732,6308,11346,12519,24170
13.36.31.756706,18483,10581,3417,12604,19597,12657,23872,23673,10104,12848,13249,2296
13.36.31.793004,16794,9829,6798,12607,19595,17639,21152,253,14725,12774,24171,269
13.36.31.829658,3299,13939,14072,12196,19490,10447,175,219,12650,13798,23726,17463
13.36.31.866285,11050,13128,15065,12782,19484,8747,7004,186,16954,12160,237,24188
13.36.31.902184,12614,12767,23790,10675,19514,13276,10695,23768,8850,10926,11859,24176
13.36.31.940345,19613,10009,2173,12713,19614,12703,23867,23627,10719,13194,13342,283
13.36.31.977830,11316,12212,12589,12311,19598,15951,3060,258,14580,12634,24166,259
13.36.32.013716,2375,14122,14126,12872,19478,8170,164,21541,12975,13755,18315,24169
13.36.32.050499,12202,12918,16870,12051,19511,9408,9974,183,16489,11668,251,24196
13.36.32.085912,12679,12760,23433,10413,19518,13331,9346,23821,8132,10865,8218,24169
13.36.32.123562,19415,10506,2236,12689,19621,15086,23810,23773,14661,13067,16373,274
13.36.32.162054,6633,12615,13581,12148,19512,13744,187,1281,13507,12920,24179,255
13.36.32.197772,3196,13897,13574,13316,19498,8823,6444,187,16377,12275,241,24188
13.36.32.236960,12100,13408,22084,10262,19510,13406,11561,23578,5930,12015,15436,24181
13.36.32.275226,20911,9280,3318,12549,19589,17533,23829,245,14838,12648,23296,283
13.36.32.312907,3316,13867,14138,12166,19512,12953,178,213,12794,13978,24186,279
13.36.32.349331,9766,13913,13775,12827,19494,10583,9961,202,16672,11530,236,24187
13.36.32.387658,12004,13598,16834,10516,19544,13269,22505,23342,5474,12528,15403,24181
13.36.32.425343,20626,9347,2256,12677,19592,17547,23872,239,14939,13070,18098,283
13.36.32.462137,6744,13438,14066,12283,19504,13206,163,203,13217,13816,24189,318
13.36.32.498819,8016,13622,13507,13166,19478,7259,400,12834,12600,13782,12641,24194
13.36.32.533674,11844,13090,19561,12158,19509,9825,11743,1868,16298,11956,245,24183
13.36.32.570576,12174,13416,19941,10346,19531,13347,10234,23693,7486,11106,13636,24171
13.36.32.607846,21400,9590,2564,12680,19612,15205,23856,236,14617,12947,23568,269
13.36.32.645266,7659,12348,12738,12304,19539,12784,176,2487,12769,14096,19193,24191
13.36.32.683906,11975,12948,17776,11946,19503,11930,12114,7412,15557,11183,241,24185
13.36.32.721339,11823,13537,17557,10663,19545,13131,21292,23621,5920,12372,15417,24179
13.36.32.758081,21493,9493,2194,12696,19616,17122,23719,251,14777,13149,14516,283
13.36.32.795271,7891,13319,13918,12235,19496,12745,186,204,12929,13773,24186,258
13.36.32.831783,7384,13462,13392,13291,19487,6191,5052,193,16745,12047,240,24180
13.36.32.870233,12161,13650,21431,10502,19536,13364,12035,23622,7038,11740,14618,24174
13.36.32.908514,20811,9750,2218,12560,19613,18510,23755,244,14440,12712,22118,274
13.36.32.945282,7974,12355,12825,12226,19541,13921,183,2402,12923,13591,23778,8967
13.36.32.982404,9032,13291,13439,13130,19485,6063,4055,2020,16310,12253,226,24187
13.36.33.019935,12438,13266,21441,10556,19531,13310,20658,23639,7448,11944,14053,24168
13.36.33.057401,19697,10615,2211,12593,19591,12705,23779,23518,9224,12921,13003,264
13.36.33.094217,13092,11091,11194,12342,19613,17391,1144,225,13589,12629,24056,243
13.36.33.131929,7414,13125,13476,13114,19494,5560,282,9147,14374,12735,1104,24196
13.36.33.169515,12550,12671,23748,11000,19512,13203,10611,23844,11434,10977,11335,24171
13.36.33.205853,13309,12364,7549,11787,19567,12907,23933,23606,7803,12643,13578,9862
13.36.33.243225,16102,10128,4770,12460,19603,18085,4855,239,13675,12577,23024,260
13.36.33.280433,4477,13392,13976,12387,19488,11615,187,11320,12242,13366,10434,24188
13.36.33.316671,11441,12857,13976,12873,19498,3758,1308,1021,15060,12389,3541,24189
13.36.33.351619,12523,12445,20604,11047,19518,13469,9262,23716,10140,11193,13499,24170
13.36.33.390961,19373,10516,4979,12564,19611,17264,23717,2987,12862,13015,12919,269
13.36.33.428347,10126,12402,13311,12192,19593,17896,182,473,12877,13199,17090,4932
13.36.33.465887,9529,13142,13583,12511,19498,4583,8137,797,15595,11936,2828,24181
13.36.33.503213,12358,12672,19139,10992,19515,12909,12050,23751,12183,10983,11562,24168
13.36.33.538735,12253,12719,12725,11144,19543,13680,19600,23629,7652,12405,13596,24090
13.36.33.575736,18275,9994,10443,12484,19609,23025,21060,235,13625,12598,20221,258
13.36.33.613996,4486,13442,13562,12457,19496,7622,165,12158,12357,13495,12455,20440
13.36.33.650114,11392,12727,15478,12354,19497,2729,4862,4007,15780,12168,3103,24181
13.36.33.686958,12252,13275,15814,10759,19540,13623,13037,23678,8137,11991,13502,24170
13.36.33.724483,19188,10650,6107,12518,19602,13248,23796,11773,9822,12655,13104,16212
13.36.33.759655,16794,10016,7773,12526,19618,22198,17935,238,13917,12734,19555,263
13.36.33.796182,6197,12923,13357,12206,19513,13393,178,1562,13124,12889,18647,243
13.36.33.831753,6903,13221,13349,13030,19478,1831,556,9020,14741,12635,6090,24186
13.36.33.867826,12220,12658,16586,12136,19520,8444,10927,2810,14787,11700,3925,24178
13.36.33.903415,12380,13189,16480,10744,19522,13634,9017,23753,9890,11460,13408,24178
13.36.33.941137,19236,10346,5222,12548,19596,18185,23720,239,13443,12942,12915,274
13.36.33.978982,7748,12743,13418,12241,19560,15440,178,3174,12805,13200,15113,16744
13.36.34.016701,11114,12994,13841,12467,19493,7804,10635,3493,15455,11897,1614,24184
13.36.34.054855,11858,13250,15175,10699,19538,13833,10688,23667,8629,11693,13765,24171
13.36.34.090556,18427,10731,4580,12601,19602,13810,23746,7077,11082,12769,12775,270
13.36.34.128084,11782,11644,12777,12327,19581,16677,164,215,13417,12865,19881,6129
13.36.34.165781,8916,13287,13316,13197,19473,5087,149,11625,12381,13341,6810,24185
13.36.34.201685,12408,12545,23905,11249,19513,12065,12401,20223,13171,11135,234,24178
13.36.34.238147,11909,13110,12932,11195,19552,12919,23942,23642,6455,12809,14128,10955
13.36.34.276312,17846,9499,5052,12486,19593,18506,21472,240,14343,12747,24164,268
13.36.34.313906,3029,14099,13878,13169,19448,7037,160,14533,12850,13419,793,24190
13.36.34.351454,12342,12712,23891,11273,19493,13017,11390,23932,10737,10506,8928,24176
13.36.34.390197,18318,10184,2191,12681,19599,12897,23856,6821,10868,13053,12966,276
13.36.34.427981,12208,10934,12312,12360,19599,16210,1028,213,14093,12739,24175,247
13.36.34.465570,7402,13482,13799,12867,19502,8441,8787,10616,17334,11602,236,24179
13.36.34.503533,12384,13046,21762,10436,19515,13304,10548,23813,7772,11604,12809,24164
13.36.34.540356,17608,10618,4253,12409,19590,12982,23895,3362,11501,12952,12324,276
13.36.34.578601,9616,11393,13114,12255,19516,12506,175,4143,13064,13495,24182,3672
13.36.34.616299,9804,13349,14300,12920,19494,8896,9629,10536,17399,11837,235,24176
13.36.34.653519,12402,12964,20497,10305,19514,13320,10975,23832,7333,11721,13927,24172
13.36.34.691296,20631,10052,2149,12697,19598,13317,23900,1101,11265,12746,23565,265
13.36.34.732884,9525,13484,13460,13408,19483,7741,7815,12819,16016,12204,216,24180
13.36.34.768394,12401,12632,23926,11257,19521,12794,11670,24013,11469,10729,5931,24172
13.36.34.807036,17489,10284,2781,12717,19601,13259,23912,1846,12500,13012,12484,258
13.36.34.843453,17030,9523,9765,12525,19601,16727,17818,223,14405,12576,24167,260
13.36.34.880389,3659,13999,14081,12640,19479,10036,156,12642,12598,13612,16109,24185
13.36.34.917702,12108,12933,22513,11094,19506,13914,11980,23309,11895,11044,6704,24175
13.36.34.956252,13815,12194,9821,11225,19572,12976,24004,23994,5909,13081,13314,256
13.36.34.994007,15209,9683,11473,12515,19583,17171,13264,209,14418,12501,24166,239
13.36.35.030904,3311,14067,14017,12740,19484,9456,144,13497,12805,13092,1365,24188
13.36.35.068214,12199,12777,20672,11871,19544,12184,12961,20661,12841,11136,6904,24172
13.36.35.105786,12507,12027,6504,11945,19584,12623,23981,14302,8158,13135,13072,261
13.36.35.143879,15775,9520,10008,12601,19584,17737,14131,210,14878,12573,23995,256
13.36.35.180433,3417,13916,13797,13207,19479,7925,537,14211,13324,12663,360,24184
13.36.35.218948,12486,12587,23665,10609,19493,13176,10432,23916,8882,11660,11753,24167
13.36.35.257535,19771,8773,3899,12699,19578,16814,22226,238,14993,12421,23711,263
13.36.35.296809,3208,13613,13783,12298,19479,12324,173,6132,12740,13387,14708,24082
13.36.35.334409,11790,12775,21517,11513,19497,12652,12867,20031,12661,10879,4628,24179
13.36.35.372482,12496,12765,10015,11155,19538,12879,23673,23643,5020,12356,14563,24162
13.36.35.407716,20964,10366,2243,12561,19550,12956,23938,23622,7025,12692,13855,264
13.36.35.443407,18403,9217,9074,12487,19570,16203,1399,231,14410,12702,24164,247
13.36.35.481796,4757,13549,13351,13541,19470,6532,7451,15963,17886,12142,226,24179
13.36.35.520680,12155,11835,20888,10305,19500,12681,10782,23850,8172,11161,12225,24171
13.36.35.556790,15619,11775,5926,12219,19579,13173,23987,22065,6212,12826,13823,262
13.36.35.594394,14345,10462,11174,12420,19593,16825,2753,216,14495,12678,24161,263
13.36.35.629894,4891,13905,14154,12353,19496,11789,160,7865,13072,12895,24003,20738
13.36.35.666502,10139,13350,14193,13234,19505,8087,10705,11438,17939,12116,215,24183
13.36.35.702831,12282,12558,23893,10751,19504,12687,11286,24056,10329,11335,12831,21815
13.36.35.740343,16911,10902,4265,11896,19579,12496,24003,21631,5612,12751,14460,14862
13.36.35.776324,18348,9353,8910,12600,19597,17331,4629,197,14199,12657,24169,1128
13.36.35.814833,4338,13591,13542,13557,19494,6736,5844,14366,13676,12670,221,24179
13.36.35.853329,12547,12931,22077,10678,19508,13120,11084,24037,9643,11368,13149,24164
13.36.35.890545,17161,10379,5035,12664,19576,13170,23977,6582,10160,13106,12140,265
13.36.35.928038,13030,10875,12666,12503,19575,15917,1272,291,13980,12732,24176,230
13.36.35.966006,8608,13376,13457,13488,19476,7306,6474,13192,13685,12832,6962,24182
13.36.36.001590,12182,12613,20461,11883,19517,12664,12690,20206,13464,10868,7388,24172
13.36.36.039776,14748,10450,6071,12476,19573,12915,23954,15260,9481,12836,12226,267
13.36.36.078539,11052,10841,12528,12487,19502,12531,170,192,13201,13181,20492,15312
13.36.36.117435,11467,12851,20637,11655,19484,12578,12927,5771,15219,11372,575,24182
13.36.36.155130,11805,14007,17909,10034,19470,13118,19949,23691,6142,11385,12868,24168
13.36.36.190813,19592,9863,2117,12759,19559,14124,23863,23685,13463,12849,17624,270
13.36.36.229509,5735,12522,13132,12267,19527,13864,166,214,13213,13091,23717,7233
13.36.36.266612,9813,13415,14061,13273,19457,9699,10604,214,17370,11281,240,24182
13.36.36.304744,12037,14182,19431,10126,19472,13245,12624,23615,6713,11422,13631,24190
13.36.36.341760,22192,9500,2091,12705,19539,16444,23903,228,14743,12262,22102,273
13.36.36.379608,6397,12647,11311,12303,19535,14838,217,213,14070,12613,24174,8847
13.36.36.415461,5556,13314,13371,13554,19467,7926,2650,7310,15121,12634,226,24184
13.36.36.453192,12340,13229,20982,10340,19494,13260,10912,23861,7793,11778,12904,20034
13.36.36.492788,19018,9428,5468,12694,19599,16737,22322,225,14441,12521,24166,261
13.36.36.530376,4765,13643,14078,12231,19481,11896,155,9967,12673,13265,18043,24182
13.36.36.567740,12084,12511,18623,12267,19521,11746,12498,16211,16130,11292,1531,16701
13.36.36.605783,12056,12603,11250,10936,19580,12675,23998,19755,6993,12952,12995,1729
13.36.36.644131,15187,9813,12227,12520,19578,16864,12981,222,14370,12710,24175,253
13.36.36.680751,4758,13691,12606,12524,19472,10412,149,13042,12105,12818,902,24175
13.36.36.719831,12601,12741,21900,11109,19498,13089,11436,24025,10317,11142,1787,24174
13.36.36.755649,11941,12879,13713,10655,19532,13177,13258,23836,6301,11681,14000,24169
13.36.36.791481,18583,10378,3295,12680,19576,15092,24027,229,15116,12766,22382,258
13.36.36.829346,8677,12257,13327,12327,19555,14454,155,1200,13176,13140,24175,227
13.36.36.866208,9284,13137,13434,13406,19484,7253,10348,4820,17803,12267,241,24188
13.36.36.903379,12657,12551,21707,10772,19480,13184,10712,23885,10160,10900,6152,22191
13.36.36.940806,16505,11155,7407,11819,19538,13028,24021,23621,5667,13188,14973,301
13.36.36.977222,15489,9657,8235,12568,19587,18329,13656,243,14881,12769,24160,269
13.36.37.013993,5279,14244,12540,12302,19475,12232,162,1072,12663,13686,23883,24186
13.36.37.051013,12021,13136,16361,12452,19515,8102,12154,12300,17983,11678,241,24064
13.36.37.087598,11979,13038,18881,10644,19494,13343,11025,23899,8061,11126,5640,15033
13.36.37.123830,15039,10902,7026,12504,19604,13029,24014,1863,12401,13353,12036,268
13.36.37.161363,13619,10373,11373,12599,19606,17153,7959,210,14321,12721,24164,2449
13.36.37.199006,7302,13347,12716,13407,19508,7267,8935,12763,17279,12498,226,24183
13.36.37.237468,12373,13179,17699,10456,19510,13316,11074,23932,7304,11258,10943,21698
13.36.37.274406,17010,10823,5294,12580,19609,14398,24024,202,13329,12919,14695,263
13.36.37.312058,11437,11470,12686,12381,19619,16041,2185,204,14440,12657,24161,228
13.36.37.348456,5850,13469,13759,13248,19478,7092,7765,12469,16439,12333,221,24181
13.36.37.386964,12451,12687,20559,11152,19490,12676,10838,23606,12353,11067,1242,17679
13.36.37.422576,11673,12148,12651,11469,19588,12659,24009,16908,5280,12887,14507,7315
13.36.37.460403,16172,9856,11049,12445,19592,17315,8526,207,14402,12770,24169,238
13.36.37.498497,5776,13684,13658,12768,19463,9897,186,13865,12633,13117,9174,24178
13.36.37.534405,11941,13033,14191,13179,19500,8296,12058,8864,18103,11672,239,24184
13.36.37.571514,12060,13546,18187,10228,19489,13443,12415,23746,6137,12280,14581,24166
13.36.37.608324,18491,10387,3746,12340,19570,12610,24005,23671,4111,12846,14487,12979
13.36.37.643272,17393,9696,4712,12647,19568,15837,24021,11277,12646,12962,11933,277
13.36.37.678858,11349,11079,12814,12363,19540,15788,160,214,13941,12975,24176,6126
13.36.37.715985,7814,13447,13795,13465,19437,5261,5809,2045,14834,12437,237,24187
13.36.37.753549,12732,12685,21026,10886,19483,13252,11757,23895,9928,11499,3938,15323
13.36.37.790634,15116,9640,4951,12488,19596,13653,24023,2281,12225,13034,13414,267
13.36.37.829103,10578,12264,13982,12262,19462,11762,158,7114,12964,13441,24174,21749
13.36.37.867085,10989,13137,13789,13323,19485,7641,11338,11908,16855,12117,239,24182
13.36.37.904055,12427,13192,18349,10355,19503,13393,11151,23866,7041,12073,13589,24171
13.36.37.942509,18495,10077,3723,12682,19607,16912,23007,225,14022,12961,12091,268
13.36.37.978722,11967,11287,12672,12452,19593,16325,1292,195,14021,12808,24157,9959
13.36.38.015915,7652,13396,13493,13375,19479,6256,9607,12542,17535,12085,233,24178
13.36.38.054575,12605,13351,17344,10387,19530,13391,11385,23921,9353,11499,7671,22931
13.36.38.090770,15222,11419,9426,11822,19577,12699,23906,23870,4389,12928,14281,7610
13.36.38.127266,15826,9925,9666,12500,19582,17580,12810,225,14659,12666,24148,269
13.36.38.163705,6474,13701,14010,12300,19469,11900,158,11517,12497,13202,23534,9187
13.36.38.200302,10590,13338,14086,12698,19492,8582,11981,10037,18618,11506,231,24181
13.36.38.239505,12175,12170,11402,11266,19560,12783,23106,23805,4181,12668,14763,5021
13.36.38.277700,13988,10185,11021,12535,19598,18401,15787,237,14754,12607,24157,257
13.36.38.314402,5373,13553,14035,12527,19455,9620,150,13215,12612,12888,7023,24161
13.36.38.351747,12261,12656,19815,11652,19513,11050,12659,12538,16899,11406,224,24170
13.36.38.388547,12095,13411,14756,10500,19516,13182,19044,23832,4015,12642,15259,24181
13.36.38.426579,17619,9810,5985,12619,19572,17478,24036,222,14426,12768,22857,261
13.36.38.463680,6825,13427,14020,12531,19451,10416,151,12466,12563,13139,9105,24185
13.36.38.501658,12247,12746,18059,12303,19498,10179,12369,10663,17089,11391,234,24176
13.36.38.537763,12342,13366,18233,10377,19497,13456,11692,23883,7931,11780,11297,24170
13.36.38.574259,15384,11559,6299,12269,19573,12924,24010,4383,8660,12993,13051,714
13.36.38.610853,15476,9685,7817,12604,19562,18020,17035,229,14813,12763,24152,256
13.36.38.648078,5247,13667,14054,12335,19454,11400,153,12340,12563,13204,13236,24197
13.36.38.685419,12368,12634,21763,11472,19500,12950,12191,23910,12111,11144,4513,24171
13.36.38.724615,16661,10638,4964,12326,19557,12658,24017,23269,4562,12994,13459,4886
13.36.38.760686,15652,9801,8173,12589,19574,17831,21831,222,14835,12856,23966,260
13.36.38.797430,6017,13630,13977,12727,19444,7607,1758,13655,12634,13137,10124,24179
13.36.38.835450,12263,12778,21422,11203,19487,13150,11867,24048,13204,11156,2115,24176
13.36.38.873797,13682,12137,8756,11545,19567,12717,24020,17825,7609,13090,14118,3225
13.36.38.911131,14838,9825,12150,12379,19586,16844,169,459,14003,12819,24173,240
13.36.38.949549,7268,13531,13434,13513,19437,6558,2595,14007,13024,13035,8381,24186
13.36.38.985275,11889,13014,19068,11924,19493,10208,11680,9527,17680,11356,231,24177
13.36.39.022605,12016,13355,14312,10708,19517,13240,20624,23679,3719,12700,15203,23614
13.36.39.060186,18438,9545,4992,12594,19566,17621,24031,233,13775,13050,12061,268
13.36.39.094951,14670,9788,11179,12458,19549,16292,4157,244,14600,12473,24161,260
13.36.39.131079,4160,13779,13876,12149,19430,10790,158,6753,12640,13128,19911,23029
13.36.39.168389,11952,12815,21294,11637,19447,12992,11766,23930,10939,11441,6839,24173
13.36.39.207905,17143,10585,5152,12171,19518,12557,23977,23663,7700,12641,12014,278
13.36.39.245477,12881,11294,13127,12394,19515,15071,165,201,13279,13389,24174,250
13.36.39.283026,6940,13552,13444,13373,19401,6210,5747,1126,18008,12322,240,24188
13.36.39.320850,12654,12982,18361,10359,19438,13627,11055,23825,8173,11105,9651,24174
13.36.39.358776,20429,9963,2074,12723,19552,16501,23921,23712,11972,13078,9089,276
13.36.39.395969,10982,12252,13602,12315,19467,14568,162,212,13585,13574,24172,250
13.36.39.433358,7690,13538,13476,13278,19399,5793,4860,6039,15993,12558,240,24195
13.36.39.470622,12831,12828,23117,10715,19429,13271,12506,22128,12587,10707,235,24185
13.36.39.506096,11896,13078,15396,10444,19455,13363,18747,23730,3902,12046,12490,23854
13.36.39.543887,18616,9718,6980,12600,19543,18275,13510,261,15069,12686,24160,271
13.36.39.581694,2635,13889,13823,12985,19390,7289,157,194,13275,13121,1732,24197
13.36.39.619082,12497,12774,21140,12033,19428,8353,7490,11020,17912,12445,229,24191
13.36.39.654388,12742,13008,19730,10344,19419,13517,9945,23807,8766,10741,217,24176
13.36.39.690974,15565,11177,4953,12350,19519,12797,23939,23617,6054,13041,8296,2071
13.36.39.728079,16154,10421,11938,12475,19538,17913,18545,258,14929,12870,23944,278
13.36.39.764118,4445,13556,14036,12348,19418,12521,179,1809,12605,13641,8975,24197
13.36.39.802790,12623,12642,23266,11294,19432,13103,11886,22236,12337,10500,213,24181
13.36.39.840315,12893,11673,7532,11935,19504,12626,23882,23582,7927,12967,6939,271
13.36.39.878336,15282,10224,9146,12516,19533,17970,18883,258,14909,12669,24180,273
13.36.39.915565,3159,13767,13645,13386,19381,7446,157,191,13513,13309,408,24189
13.36.39.954063,12720,12669,23417,10850,19417,13342,11111,23865,11791,10366,218,24180
13.36.39.990939,14861,10814,5101,12048,19495,12699,23947,23424,5256,12825,10485,272
13.36.40.028073,16220,9761,8880,12554,19500,18049,18648,244,14672,12823,24159,274
13.36.40.064962,3131,13927,13851,12915,19369,9460,172,202,12353,13836,10847,24195
13.36.40.102179,12211,12739,20338,11720,19419,12496,11892,22581,11589,10386,225,24179
13.36.40.140792,14173,10901,7937,11871,19502,12772,23937,23431,4081,12668,12804,22802
13.36.40.176777,20004,9712,2632,12638,19521,17794,23842,259,14744,13056,16532,280
13.36.40.213663,7246,13558,14050,12350,19377,7003,168,8690,13834,13798,4460,24199
13.36.40.253231,12682,12574,23829,10855,19415,13185,12065,23919,12709,10073,228,24182
13.36.40.290404,12822,11430,8906,11997,19503,12641,23940,23546,9231,13081,10736,401
13.36.40.327810,17169,10035,8593,12549,19536,17987,22793,255,14793,12750,24171,268
13.36.40.364837,3493,13825,14051,12623,19385,9822,174,1947,12637,13943,9827,24205
13.36.40.402987,12612,12644,23622,11088,19413,13250,12971,23916,11796,10478,239,24187
13.36.40.439412,12043,12818,12963,11080,19465,12982,23063,23592,4519,12272,13059,21829
13.36.40.477300,18670,9701,3940,12657,19524,17958,20680,264,14929,12603,24147,279
13.36.40.514346,4869,13611,13746,13303,19367,6774,154,195,13271,13512,7824,24197
13.36.40.553201,12643,12535,23879,11015,19421,12793,12715,12980,13186,10402,230,24188
13.36.40.589933,12024,12683,15197,10617,19470,12958,23641,23416,4292,12617,13107,10521
13.36.40.627480,18121,9683,3428,12669,19523,17805,23860,242,14474,12934,14777,283
13.36.40.663755,7124,12996,13475,12295,19467,15512,169,230,14029,12836,24169,262
13.36.40.699389,4367,13808,13789,12987,19368,7148,413,2629,13466,13068,2267,24206
13.36.40.737013,12790,12635,23684,11373,19419,12974,11189,8614,15086,10826,238,24181
13.36.40.772914,11860,12906,13893,10624,19454,13172,22654,23582,4346,12418,13080,12192
13.36.40.811104,17357,9901,9475,12515,19532,17870,17201,256,14573,12690,24165,267
13.36.40.848552,3372,13870,13920,12493,19392,8875,165,6433,12487,13933,24185,24204
13.36.40.885761,12264,12721,20414,11597,19431,12423,12958,8469,15190,10974,239,24183
13.36.40.922956,11954,12760,12365,10812,19459,13055,23900,23597,4260,12668,12618,14739
13.36.40.960584,18092,9752,7145,12530,19524,17785,3318,243,14318,12655,24160,267
13.36.40.999089,3562,13846,14007,12388,19383,10256,172,209,12472,13932,23749,16052
13.36.41.034699,10962,13183,14559,12645,19397,10041,11196,218,17282,11266,239,24190
13.36.41.072243,12208,13274,17575,10312,19432,13471,10077,23847,10216,10110,2569,24176
13.36.41.107908,15259,10926,6575,11548,19496,12779,23920,23409,6214,12994,10001,5421
13.36.41.144846,16309,10123,11622,12378,19511,16419,649,228,13926,12739,24174,256
13.36.41.182593,3987,13873,13993,12586,19373,7050,176,180,15233,13189,245,24187
13.36.41.220490,12733,12607,23886,11327,19422,12757,12283,10875,16211,11172,241,24182
13.36.41.256686,11972,12297,9532,11708,19508,12653,23912,23517,6227,12855,8225,277
13.36.41.295567,14194,10421,10804,12476,19528,16997,6996,250,14566,12708,24168,259
13.36.41.332765,4356,13766,13718,12874,19374,8202,164,14218,12962,13664,5710,24200
13.36.41.370035,12667,12699,23695,11161,19425,13034,11753,23935,11527,10310,597,24168
13.36.41.407569,13517,10653,3699,12446,19540,13367,23796,23611,10960,12894,18427,278
13.36.41.446896,9036,12117,12984,12327,19516,16844,1959,250,14053,12895,24170,254
13.36.41.482948,4646,13773,13875,12747,19385,9520,174,9465,12512,13741,21895,23870
13.36.41.519053,12161,12766,21263,11832,19428,12531,13586,6058,14602,11009,244,24183
13.36.41.555934,12133,13259,19040,10342,19443,13412,12787,23670,5859,11681,8617,24171
13.36.41.593051,20289,9814,2479,12678,19547,15488,23800,13964,13502,13109,7575,286
13.36.41.629275,13092,10990,11176,12466,19531,17878,17059,263,15139,12696,24144,278
13.36.41.664391,5687,13558,13750,12263,19452,13648,174,223,13908,12728,24170,246
13.36.41.700450,7726,13379,13624,13067,19380,6771,4181,5474,15923,12944,246,24194
13.36.41.737947,12640,12858,21148,10613,19399,13289,10643,23501,10544,10372,205,24190
13.36.41.774837,15567,10993,6259,11783,19492,12649,23902,23419,5699,12905,11645,12444
13.36.41.811355,17191,10069,7222,12602,19503,17919,23692,247,14920,12945,24150,279
13.36.41.848277,4159,14073,13938,12970,19350,6653,1119,196,15852,13185,247,24187
13.36.41.886847,12606,12594,23760,10917,19420,12893,12564,22550,11543,10351,206,24180
13.36.41.924701,14658,10662,3610,12632,19511,12629,23842,23506,8434,12898,11714,2109
13.36.41.961812,15943,10804,11696,12385,19508,15372,173,236,14354,12901,24170,270
13.36.41.999460,4054,13913,13991,12425,19383,11081,171,8107,12520,13568,14202,24201
13.36.42.036550,12490,12636,22810,11222,19417,12319,11566,13172,13857,10513,221,24174
13.36.42.074356,14383,10715,6768,12312,19502,12693,23824,21922,7889,12920,11367,430
13.36.42.112433,14135,11120,10992,12401,19509,15566,164,226,13750,12858,24170,275
13.36.42.149863,5066,13573,13474,13208,19364,6745,166,9326,14650,13354,8005,24201
13.36.42.186893,12599,12488,23693,11263,19421,13338,10972,23901,10507,10450,1685,24175
13.36.42.224865,15053,10513,5301,11916,19499,12741,23790,10643,13166,13098,12887,287
13.36.42.264022,7997,13705,13856,12109,19398,11932,183,353,12903,13752,24171,7825
13.36.42.301368,10417,12779,14958,12724,19395,9051,8469,436,16738,11418,246,24186
13.36.42.339191,12239,13037,18451,10534,19405,13414,10217,23673,7144,11259,6749,24162
13.36.42.375844,18785,9998,2045,12804,19520,13365,23762,9659,11325,13103,10225,277
13.36.42.412529,13806,11615,11985,12446,19509,15494,1908,241,14319,12765,24158,269
13.36.42.448657,4077,14158,13924,12195,19398,13095,187,540,12920,13931,24172,2389
13.36.42.484264,8936,13154,14053,12944,19371,8166,7069,2957,17341,12572,241,24193
13.36.42.520391,12653,12505,23601,11259,19406,13250,11391,20941,12662,10708,241,24183
13.36.42.556279,12032,12996,18601,10535,19434,13390,12690,23678,6379,11684,11043,24168
13.36.42.593199,19857,9825,3251,12753,19516,17134,23812,240,14954,12846,24030,281
13.36.42.630799,7817,13581,13619,12210,19424,14684,171,209,13413,13141,24176,255
13.36.42.667684,9204,13317,13410,13128,19346,6946,483,10613,14304,12980,249,24198
13.36.42.704377,12730,12565,23452,10801,19387,13231,11392,23931,11383,10489,245,24168
13.36.42.741530,14451,10826,8976,11968,19466,12910,23818,23622,6574,12443,13695,24172
13.36.42.776596,19849,9839,2101,12778,19510,13335,23760,8067,14519,13030,10566,273
13.36.42.812834,13346,11280,11958,12373,19488,16416,982,243,14844,12546,24158,259
13.36.42.849956,5068,13755,13727,12885,19354,8678,165,10581,13316,13040,247,24191
13.36.42.887901,12743,12563,23170,10730,19389,13176,11091,23638,10260,10494,219,24173
13.36.42.924647,13513,10634,5456,12244,19465,12664,23868,23645,10698,12959,24147,275
13.36.42.964710,5808,14188,13675,12222,19379,12708,186,350,12979,13517,24172,271
13.36.43.001406,10420,13190,13445,13066,19341,6899,1562,9026,15450,12522,245,24188
13.36.43.038461,12636,12404,19221,10591,19399,13343,12209,23728,7361,10846,3544,24163
13.36.43.076058,18925,9908,2532,12772,19492,15084,23745,5440,14475,13062,15627,274
13.36.43.114124,8352,13788,13692,12240,19446,14422,170,208,12956,13498,24170,3329
13.36.43.151685,10621,12976,16526,11902,19388,10995,11425,4384,14127,10619,220,24177
13.36.43.190772,12320,11311,9095,11688,19442,12804,23874,23634,10416,13045,12672,14885
13.36.43.228350,16981,10088,8108,12493,19491,17620,20654,243,14781,12912,24162,267
13.36.43.266147,4077,14254,13841,12661,19334,8133,168,12835,12556,13437,17053,24200
13.36.43.303686,12604,12493,22437,11554,19383,12513,11874,22042,10877,10725,579,24171
13.36.43.341073,12644,11772,11103,11727,19451,12765,23875,23608,8604,12972,13573,22345
13.36.43.377971,17865,10189,8004,12543,19485,18309,21228,255,14833,12898,23251,275
13.36.43.415562,4635,13845,14010,12328,19346,11704,185,4244,12560,13611,20483,23644
13.36.43.452108,11316,12893,14266,12271,19356,8789,8763,185,15556,12001,241,24191
13.36.43.488367,12647,12594,23231,10758,19369,13346,10832,23893,10038,10916,226,24178
13.36.43.523791,11931,12167,15829,10770,19383,13452,16162,23632,6955,12294,13396,24174
13.36.43.560859,18913,10130,2088,12620,19488,16185,23705,244,14857,13172,15727,281
13.36.43.597935,7191,13486,13926,12244,19367,13685,193,3622,12737,13475,24176,239
13.36.43.634197,7952,13061,13355,12871,19324,5173,1771,5348,15406,12068,241,24196
13.36.43.671175,12770,12411,23895,11384,19362,12601,12530,23575,10847,10851,224,24177
13.36.43.707232,11961,12377,14681,11211,19414,13032,23933,23628,9205,13128,10708,285
13.36.43.745374,16025,10577,3715,12508,19473,18774,23715,245,14895,13054,20945,281
13.36.43.781584,6455,13771,13855,12170,19378,14225,187,417,12803,13129,24177,9712
13.36.43.818680,11117,12727,15960,12362,19358,6623,6520,191,15296,11894,261,24180
13.36.43.855946,12202,12766,20505,10725,19378,13453,10285,23676,7952,12281,12534,24173
13.36.43.893802,19147,10292,2087,12616,19486,14625,23744,7638,12674,13132,10682,278
13.36.43.930273,11634,12033,11018,12369,19472,17692,9411,244,13905,12675,24165,259
13.36.43.967302,7163,13284,13571,13051,19340,5054,324,6758,14615,11733,242,24186
13.36.44.005089,12602,12484,23796,11134,19368,13152,10594,23871,10846,11144,1408,24174
13.36.44.041939,14380,11202,6312,12111,19478,12938,23748,21106,11678,13297,10747,277
13.36.44.080754,9820,13099,13184,12190,19445,17081,174,228,13531,12728,24180,251
13.36.44.117805,8690,13200,13409,12800,19337,5066,3252,1116,15636,11072,246,24186
13.36.44.155556,12547,12728,19747,10767,19378,13427,9525,23667,8175,12501,11045,24176
13.36.44.193603,18889,10332,2090,12588,19467,12717,23775,23609,10259,13217,12525,258
13.36.44.228925,15692,10801,7733,12456,19478,18620,23749,251,14664,13171,21917,282
13.36.44.265122,6445,13821,13881,12242,19363,11397,180,8306,12380,12692,20642,24197
13.36.44.302814,11974,12645,16068,12453,19339,5778,6429,2995,15095,10603,244,24185
13.36.44.338874,12532,12645,22139,10901,19371,13123,10576,23873,10154,11853,3886,24172
13.36.44.375772,16019,10456,2157,12590,19489,13673,23738,6671,13296,13437,12700,275
13.36.44.415316,5827,13839,13929,12187,19348,12394,182,2648,12467,12899,24180,10484
13.36.44.451645,10384,12913,13477,13142,19347,5087,145,9412,14477,10753,226,24187
13.36.44.488490,12695,12555,22079,9675,19365,13300,10687,23780,7888,13074,9873,269
13.36.44.532614,4810,13826,13984,12202,19359,11947,189,1908,12955,12943,24177,249
13.36.44.567736,7982,13338,13466,13727,19340,5299,3536,1819,15478,10539,236,24188
13.36.44.605589,12576,12722,22651,10889,19358,13398,9719,23759,9053,15734,1939,24171
13.36.44.641915,13831,11089,9621,11406,19433,13116,23950,23584,7694,16676,13477,24173
13.36.44.677633,18921,10161,2386,12596,19475,18074,23733,243,14804,13689,24155,276
13.36.44.715639,5261,13893,13989,12305,19318,7489,167,10883,12991,10887,18997,24115
13.36.44.755267,12659,12592,23641,10938,19365,13450,7448,23788,9600,12420,211,24171
13.36.44.791934,13754,10582,3803,12439,19485,12996,23814,22207,10298,14071,10560,273
13.36.44.830168,12879,11453,12151,12324,19475,18670,4311,239,13891,12793,24171,264
13.36.44.866838,4779,13809,13861,12415,19345,9994,173,10723,12303,11212,21533,23027
13.36.44.903127,12065,12553,22742,11656,19379,12159,12422,23520,12394,10698,234,24178
13.36.44.941443,12481,11688,13380,10862,19391,13346,20333,23605,6495,14464,9206,24169
13.36.44.977181,19480,9795,2123,12633,19488,16445,23714,246,14929,13357,24124,287
13.36.45.015710,5122,14194,14003,12371,19331,8492,171,11625,12683,11041,14394,24194
13.36.45.053955,12520,12608,23128,11509,19379,10996,10039,191,15203,9880,254,24182
13.36.45.089881,12176,12938,19787,10584,19377,13532,13075,23630,7255,14271,10579,24170
13.36.45.126821,18920,9698,2118,12564,19484,13999,23762,6686,11615,13797,9912,273
13.36.45.164364,7104,14046,13594,12202,19388,14247,186,394,12920,12895,24185,1346
13.36.45.202298,10881,13081,14019,12922,19340,5221,3398,5882,14406,10221,2202,24194
13.36.45.237945,12710,12540,23906,11063,19381,13127,10772,23912,11520,11345,226,24173
13.36.45.275745,15420,10088,4662,11957,19439,12946,23919,23590,8165,14272,12191,3961
13.36.45.312208,16862,9854,5860,12548,19492,19168,22302,247,14629,12984,24164,268
13.36.45.349999,4376,14168,13898,12827,19337,6849,160,12360,13143,9646,234,24194
13.36.45.388249,12662,12467,23859,11135,19379,13154,11193,23899,10108,12638,3493,24169
13.36.45.426239,17248,10118,3907,12314,19455,12691,23849,20573,7927,14275,11791,6672
13.36.45.462593,15716,10874,10745,12350,19502,17355,6553,238,13992,12888,24172,272
13.36.45.499549,4667,14067,14035,12173,19373,13237,183,677,12922,12684,24179,23162
13.36.45.535973,11510,12967,14587,12742,19349,5822,4610,5882,16572,9682,241,24187
13.36.45.572604,12563,12626,22788,10684,19399,13431,21253,23655,6741,14782,10963,24174
13.36.45.610688,19285,9879,4872,12513,19497,19143,12751,248,14483,13032,24155,268
13.36.45.650028,4570,14077,14047,12378,19348,9943,175,9989,12309,11138,18279,24196
13.36.45.687405,12455,12515,23896,11297,19383,12608,12274,23987,12013,10760,229,24187
13.36.45.723727,12100,12937,17441,10787,19404,13492,12900,23668,6895,14889,9825,24166
13.36.45.760421,18930,9884,2102,12512,19482,13073,23781,4847,12176,13755,10049,276
13.36.45.797409,11693,12826,13264,12151,19388,12107,186,386,13604,12488,24169,258
13.36.45.834217,6728,13649,13564,13160,19336,4916,400,9796,15435,9683,3717,24194
13.36.45.870876,12559,12558,23862,11439,19394,12109,12337,18276,12154,10568,232,24182
13.36.45.907640,11941,12155,12133,11446,19449,12972,23922,23581,6913,14487,12113,280
13.36.45.947704,10567,13035,12642,12208,19452,13941,185,220,13586,13125,24165,257
13.36.45.984287,6396,13929,13849,12867,19348,8662,183,4248,12642,12142,24182,22979
13.36.46.019645,11714,12869,19236,12031,19372,9912,10498,1976,15325,10117,241,24177
13.36.46.057178,12088,12788,17726,10698,19417,13206,23108,23614,5876,14514,13625,20724
13.36.46.095603,16941,9849,5590,12503,19506,18251,21080,244,14662,12905,24166,268
13.36.46.133150,4581,14177,13880,12928,19337,6538,618,11993,13632,9650,1055,24199
13.36.46.171417,12697,12426,23839,10813,19386,13249,11652,23976,12304,11363,232,24182
13.36.46.207315,12036,12826,18223,10593,19397,13432,13008,23692,6930,14703,10012,24167
13.36.46.244077,19253,9709,2088,12656,19508,15333,23733,242,12915,13621,10325,274
13.36.46.280746,12008,12499,12505,12343,19506,17420,6823,240,14214,13017,24165,251
13.36.46.317029,4550,14137,13875,12983,19340,6753,154,12291,13960,9614,236,24191
13.36.46.355465,12722,12617,21800,10784,19379,13375,11413,23867,10773,11359,213,24176
13.36.46.392409,14055,10971,3489,12229,19488,12918,23847,21726,9394,13985,11744,271
13.36.46.430143,14190,10742,10856,12397,19491,15380,1459,230,14048,13020,24168,247
13.36.46.468731,9544,13202,13450,12243,19383,10124,8702,4691,16884,9532,247,24191
13.36.46.506251,12558,12725,22638,10885,19387,13285,11548,23887,9763,12965,2624,24175
13.36.46.542779,15208,10188,2611,12551,19498,13186,23761,6362,11911,13970,10227,282
13.36.46.580803,12164,12599,12764,12287,19480,15676,2390,239,14314,12759,24164,259
13.36.46.616977,4656,14095,13919,12370,19371,10845,182,754,12855,12935,24175,20605
13.36.46.653424,11956,12741,21030,11913,19412,12265,12060,13316,14740,10162,238,24178
13.36.46.690897,11991,12767,16731,10654,19407,13459,10819,23707,7551,13938,10652,24178
13.36.46.727646,19301,9750,3503,12521,19515,17675,23763,241,14843,13387,24140,275
13.36.46.766105,5362,14252,13940,12576,19359,10969,176,8257,12582,11461,23360,20764
13.36.46.803408,11976,12895,15747,12594,19377,8138,23755,237,14854,13422,24137,274
13.36.46.849605,5018,14203,13939,12203,19411,12456,178,3400,12698,12822,24177,17044
13.36.46.886706,11916,12941,14493,12818,19389,9171,7545,8156,17129,9792,240,24188
13.36.46.923078,12524,12776,22158,10847,19395,13250,10707,23877,10495,11974,2232,24172
13.36.46.959086,13599,11288,8012,11562,19456,13116,23966,23658,5503,14546,13456,24183
13.36.46.995373,18353,9681,3584,12525,19515,17904,20251,247,14528,12889,24180,259
13.36.47.034287,5425,13695,13522,13188,19353,6758,2581,10871,15241,9829,425,24194
13.36.47.071573,12681,12561,22351,11444,19411,12678,12634,16525,15675,10058,252,24186
13.36.47.106464,12549,12736,21036,10540,19402,13347,9364,23767,7208,13534,10427,24168
13.36.47.143986,18897,9900,2891,12639,19516,13419,23787,18383,9658,13949,11026,275
13.36.47.181106,11344,12008,12332,12323,19505,17389,5576,237,14402,12940,24171,256
13.36.47.217979,6200,13908,13800,12739,19343,7610,153,14375,12863,11417,13303,24206
13.36.47.254838,12647,12526,22999,11631,19409,11157,12033,12280,15514,9997,236,24182
13.36.47.291531,12005,12139,14841,10707,19417,13288,21146,23687,5505,14660,13765,15677
13.36.47.328780,18339,9788,6536,12576,19516,16693,23730,239,11691,13901,10222,276
13.36.47.363913,13460,10981,10097,12502,19518,17874,20551,251,14669,12895,24160,271
13.36.47.400297,4344,14251,13985,12438,19373,11113,182,3894,12748,12627,23824,23485
13.36.47.437148,12123,12752,22011,11499,19412,11501,11545,12404,15694,9795,220,24173
13.36.47.475390,12530,11159,10673,11092,19457,12832,23864,23707,6949,14359,11871,8647
13.36.47.512637,17257,10195,6795,12532,19512,17694,23626,242,14729,13149,24151,279
13.36.47.549038,6912,14180,13918,12181,19407,12907,182,2849,12889,12584,24182,6687
13.36.47.586459,11325,13100,14787,12628,19405,9104,8865,8454,17291,9807,245,24181
13.36.47.623613,12363,12932,19108,10514,19400,13385,9809,23814,9565,12804,3586,24168
13.36.47.660343,17771,9894,2117,12672,19512,14453,23762,233,14081,13398,20201,284
13.36.47.698811,7724,13403,13434,12229,19382,11151,178,4750,12807,12464,24177,2156
13.36.47.736738,11664,12965,14697,12861,19393,8731,5702,10395,16308,9747,240,24188
13.36.47.772418,12760,12505,23488,10859,19396,13318,9964,23776,8443,13254,8177,24166
13.36.47.810506,18540,9955,3798,12391,19493,12871,23841,14604,9250,14155,11562,269
13.36.47.847181,14261,11111,11029,12438,19521,17721,18938,243,14430,12967,24167,272
13.36.47.883725,4037,14226,13985,12279,19381,9783,167,11893,12459,11925,20871,24200
13.36.47.920480,12069,12893,15587,12470,19375,8904,7101,11459,17608,9779,242,24188
13.36.47.956511,12617,12691,22283,10952,19402,12983,11626,24001,12363,10426,232,24185
13.36.47.991583,11972,11931,11325,10932,19423,13297,22740,23684,4945,14233,12731,24175
13.36.48.028333,19661,9695,3382,12654,19505,14731,23769,5589,12100,13550,11298,280
13.36.48.065144,9501,12734,12754,12381,19490,16304,7202,234,14279,13000,24175,254
13.36.48.102158,8181,13386,13762,12729,19387,7440,4695,10520,17783,9596,237,24177
13.36.48.140390,12394,12856,18927,10528,19393,13367,9053,23788,8491,13450,5429,24167
13.36.48.177004,17384,9753,2183,12638,19506,13154,23834,23122,7833,14150,10620,283
13.36.48.214362,12830,12248,12942,12307,19486,15529,169,217,13686,13058,24173,245
13.36.48.252747,10078,13296,13736,13003,19362,7301,1290,12052,16428,9751,242,24193
13.36.48.288459,12640,12540,22646,11684,19403,12809,10995,21763,14441,10660,244,24179
13.36.48.325269,12072,11599,9714,11452,19456,12674,23927,23691,8268,13855,10292,272
13.36.48.365549,8178,13585,13330,12197,19407,13067,180,2276,12896,12732,23334,19198
13.36.48.403332,11295,13042,16013,12643,19388,10939,12033,9239,17156,9677,246,24181
13.36.48.440073,12574,12714,20974,10534,19396,13330,14924,23696,5900,14438,11283,24177
13.36.48.477643,19145,9784,2550,12485,19481,12730,23811,2447,10314,13988,11102,2431
13.36.48.513621,15397,10436,8116,12509,19501,17523,21171,253,14731,13171,24157,272
13.36.48.550791,4269,14014,13719,13203,19340,7319,153,13246,14289,10635,8454,24194
13.36.48.587567,12266,12814,19146,12116,19376,9870,8659,8101,17749,9664,248,24184
13.36.48.623326,12580,12775,22554,10974,19399,13334,8091,23803,9475,11944,209,24173
13.36.48.659771,14477,10984,9888,11721,19470,12656,23867,19626,8482,14153,11907,281
13.36.48.697408,14110,11238,10575,12522,19501,16599,13296,245,14656,12956,24161,272
13.36.48.734094,4217,14104,13908,12786,19357,10291,173,10998,12458,11750,12843,24188
13.36.48.770957,12228,12594,22725,11598,19406,12823,12448,23906,13702,10201,234,24178
13.36.48.807887,12155,12924,17280,10564,19436,13229,22762,23685,5197,14602,13767,22809
13.36.48.845624,18866,9710,2216,12632,19499,14210,23761,256,12455,13672,12422,277
13.36.48.882076,9439,13567,13259,12282,19479,13840,170,1183,13484,13288,24171,244
13.36.48.919648,10495,13161,13506,12957,19377,7381,2035,11850,17296,9704,242,24184
13.36.48.957635,12302,12666,17327,10437,19405,13410,10289,23800,8183,13459,5582,24166
13.36.48.993767,16841,10094,3902,12147,19491,12618,23827,10741,9529,13917,9710,279
13.36.49.031585,11447,12169,12196,12431,19487,14603,173,223,13952,13113,24166,245
13.36.49.068998,8266,13563,13387,13288,19350,7200,664,13580,13586,10609,7791,24204
13.36.49.105390,12701,12524,23453,11216,19394,13126,11505,23921,9982,11814,216,24177
13.36.49.142694,12997,11460,12049,10962,19432,13269,20938,23665,4810,14393,13364,23971
13.36.49.179030,18706,9742,2831,12720,19518,16118,23773,241,14477,13325,23243,281
13.36.49.215777,8314,13767,13454,12281,19439,13725,175,315,13599,13086,24169,247
13.36.49.252369,8457,13653,13487,13179,19349,6568,541,14047,13000,11025,15824,24198
13.36.49.288357,12583,12395,23615,11635,19398,12555,12273,23991,11926,11523,234,24177
13.36.49.326032,12740,11694,11918,11336,19381,1019,23839,23553,5308,14465,24164,24197
13.36.49.362443,17655,10952,3841,12448,19469,24957,23780,6947,13612,13446,222,289
13.36.49.398774,9606,12505,11872,12268,19496,25039,3836,265,13883,12789,24198,282
13.36.49.435193,7439,13363,13574,13030,19319,25063,178,10080,12988,10536,24190,24222
13.36.49.471823,12827,12468,22225,11430,19330,1153,12586,389,12576,11224,269,24197
13.36.49.508815,12180,12458,14213,11092,19467,12236,23957,23504,7345,13998,20883,4909
13.36.49.546701,15364,10746,2767,12557,19475,25021,23204,273,14539,13041,24168,288
13.36.49.583680,5678,13554,14147,12262,19355,25048,190,1374,12771,12269,24201,24186
13.36.49.620855,12498,12415,20922,11797,19318,1212,12128,208,16636,10286,264,24199
13.36.49.657517,8480,12656,23383,10433,19321,20756,12264,23548,6640,14204,223,24193
13.36.49.695301,18994,10657,2131,12641,19421,10039,23914,414,14047,13259,233,298
13.36.49.731897,10610,12204,11686,12332,19435,24987,172,461,13270,12855,24189,271
13.36.49.769343,9988,13178,13487,13133,19274,996,2438,6141,14446,10270,236,24197
13.36.49.806264,12840,12488,22892,10462,19313,10223,12018,23565,6347,14301,209,24179
13.36.49.844916,18495,10552,2070,12616,19383,12359,23878,5945,13024,13486,211,298
13.36.49.882452,8496,13307,13252,12135,19242,25067,188,614,12929,12734,24181,19689
13.36.49.920592,12270,12651,19641,11891,19314,1158,13229,530,16786,9957,242,24189
13.36.49.957096,12697,12522,22380,10610,19299,17480,10656,23649,8107,13994,3154,24174
13.36.49.994448,17984,10694,2054,12618,19448,11850,23870,9186,13142,13582,2126,292
13.36.50.032090,9746,12637,12417,12361,19429,24946,165,230,13704,12837,24176,267
13.36.50.067880,5297,13058,14184,12603,19264,3506,162,13021,12524,10265,9913,24197
13.36.50.105941,13020,12388,23838,11033,19321,14076,11642,23847,10476,12301,219,24178
13.36.50.142282,12159,12149,13483,10761,19366,15135,11760,23629,6642,14493,12002,24185
13.36.50.178801,18539,10351,2032,12589,19454,11146,23890,9274,11487,13586,229,283
13.36.50.215629,9287,13167,13561,12309,19352,23713,178,526,13486,12773,24174,3728
13.36.50.253208,10898,12915,13541,13030,19294,902,7535,3837,17235,9677,239,24201
13.36.50.289774,12966,12421,23786,11019,19327,13478,11601,23836,11270,12638,1915,24178
13.36.50.327415,16575,10531,2020,12538,19465,21083,23843,765,12682,13411,6271,289
13.36.50.366003,8085,13400,13948,12063,19346,24126,170,591,13110,12859,24180,251
13.36.50.402317,8494,13174,13555,13280,19288,840,239,13882,14428,9770,244,24195
13.36.50.439838,12973,12523,23023,10761,19334,13726,10868,23918,11073,12793,1005,24178
13.36.50.476847,14522,10822,2873,12454,19458,10502,23847,5971,10633,13990,1626,282
13.36.50.514182,13728,10927,8034,12439,19457,24884,23491,243,14262,13132,20920,286
13.36.50.549993,6319,13416,13772,12426,19350,23923,181,480,13298,12344,24172,5627
13.36.50.586262,9923,13240,13523,13433,19283,839,285,13941,13808,9669,249,24188
13.36.50.622800,12968,12420,23856,11207,19360,7563,13133,20532,13447,11260,246,24179
13.36.50.658823,12139,12154,11093,11404,19416,10986,23983,23597,5600,14578,11879,22204
13.36.50.696628,16234,10183,3072,12603,19471,24228,23819,238,13117,13539,13039,289
13.36.50.733156,6944,13514,13938,12272,19346,15441,187,3233,12869,12425,24171,24199
13.36.50.771577,12664,12573,19225,11762,19359,6989,13131,17463,13218,10582,242,24181
13.36.50.809069,12156,12113,13491,10691,19415,13681,17777,23672,8283,14219,4573,24170
13.36.50.844377,17249,10534,2788,12221,19438,10266,23874,21288,7717,14241,8146,9985
13.36.50.880564,14953,10871,11087,12493,19472,24902,3525,254,14298,12855,24165,279
13.36.50.918825,7385,13236,13486,13291,19278,886,3291,8244,17270,9692,253,24178
13.36.50.957780,12434,12895,19254,10485,19350,13948,9764,23720,8210,14332,7940,24179
13.36.50.995266,18598,10211,2020,12613,19487,20057,23799,242,14104,13218,19161,289
13.36.51.032684,8590,13388,13635,12259,19441,24884,3121,241,13847,12934,24168,269
13.36.51.068159,5334,13507,13757,13320,19294,852,298,14175,13963,9901,242,24192
13.36.51.106778,12909,12722,18406,10382,19376,13693,15311,23660,6656,14360,7711,24176
13.36.51.145123,18413,10375,1987,12604,19490,22044,23829,235,14172,12949,17463,280
13.36.51.182963,7743,13195,13505,12245,19451,24563,166,554,13640,12912,24178,254
13.36.51.219204,8249,13139,13521,13208,19307,840,6559,11109,15868,9654,242,24184
13.36.51.257624,12627,12752,20058,10529,19363,13559,10637,23756,8834,13998,5744,24171
13.36.51.295457,18385,10335,1990,12609,19470,11578,23908,17565,8719,14018,614,275
13.36.51.330804,14372,10553,8827,12419,19480,24887,4386,236,14047,12788,24171,275
13.36.51.367636,5316,13682,14246,12318,19328,9698,185,5582,12620,11921,24173,22854
13.36.51.404499,12490,12551,17601,12312,19344,823,10793,4120,16655,10151,249,24183
13.36.51.441431,12435,12828,17679,10653,19419,12628,23328,23620,6084,14753,12153,24185
13.36.51.479170,18140,10343,1994,12687,19481,13510,23873,9330,10243,13608,196,283
13.36.51.515071,11969,11537,11085,12462,19483,24864,20116,245,13947,12823,24171,269
13.36.51.551863,6064,13544,14161,12404,19311,2519,156,18464,12306,11151,19948,24200
13.36.51.588510,12797,12515,19223,11997,19359,1305,11441,400,16442,10306,245,24183
13.36.51.625397,12188,12690,17380,10655,19362,13416,11341,23670,7127,14430,7217,24186
13.36.51.661800,18265,10596,2232,12593,19488,12656,23759,8787,11099,13516,1212,289
13.36.51.698930,10311,12844,14064,12215,19375,19313,187,4880,12956,13045,24181,255
13.36.51.736571,10131,12937,13858,12601,19319,868,2569,8044,16360,9764,237,24187
13.36.51.773651,12843,12655,22675,10577,19353,14615,9783,23674,7116,13781,9528,24178
13.36.51.811992,18529,10409,1994,12594,19472,13525,23745,3245,12293,13563,569,282
13.36.51.848901,10532,12324,11801,12383,19492,24899,2122,233,13967,12813,24172,258
13.36.51.885496,6614,13486,13799,13260,19306,846,1153,7480,16104,9696,240,24195
13.36.51.922829,12974,12438,23591,11635,19377,8830,12768,15980,13973,10661,242,24178
13.36.51.959677,12549,12002,13484,11235,19442,13003,23834,23616,5880,14457,12143,24178
13.36.51.996194,17970,10272,2153,12587,19497,21393,23703,243,14230,13161,22684,287
13.36.52.033724,6095,13643,14163,12224,19357,18893,186,4402,12739,12867,24165,13795
13.36.52.070229,10944,13043,13536,13241,19325,853,1919,798,16449,9734,257,24184
13.36.52.108030,12389,13055,15985,10734,19416,13200,18899,23628,5836,14683,11536,22148
13.36.52.146517,17108,10263,6127,12502,19483,24887,13347,252,14039,12914,24173,272
13.36.52.185057,4780,13641,14088,12314,19331,5658,182,14549,12242,11839,24172,24208
13.36.52.221142,12263,12799,16395,12217,19345,3597,12137,11778,14715,10195,241,24183
13.36.52.258935,12106,12685,16522,10627,19386,12526,17710,23654,5957,13861,13015,24181
13.36.52.295325,18777,10497,1997,12687,19494,21381,23681,258,14643,13331,23296,289
13.36.52.332960,8573,13348,13954,12251,19327,15554,189,213,12674,13673,24177,22833
13.36.52.370910,11876,12856,14815,12650,19310,877,4505,201,18137,10188,247,24183
13.36.52.407600,12633,12783,21757,10588,19360,13770,9977,23584,8287,11925,8557,24175
13.36.52.444318,16037,10631,2671,12130,19465,11261,23778,23491,8196,13945,659,279
13.36.52.481184,14511,11147,11539,12358,19459,24909,8573,254,14768,13189,24150,285
13.36.52.517846,4877,13651,14164,12273,19348,18839,191,3924,12491,13651,24181,22650
13.36.52.554703,12242,12712,21146,11519,19351,4630,12591,195,16911,10089,251,24186
13.36.52.592648,11999,12113,13495,10638,19381,14063,18449,23581,5036,13843,11810,24177
13.36.52.629220,18967,10344,2701,12569,19479,23915,23660,9334,14207,13530,12742,282
13.36.52.666389,8499,12826,13267,12126,19386,22168,188,2313,13229,13463,24174,4685
13.36.52.703660,10568,12962,13431,13256,19298,901,3797,1843,16791,10857,243,24206
13.36.52.739538,12929,12377,23701,10869,19324,13894,12111,23899,12167,10618,237,24183
13.36.52.775626,12136,12857,16806,10602,19386,14153,23564,23671,5313,13399,12276,24181
13.36.52.811589,17938,10635,2025,12537,19463,13958,23674,23668,10446,13958,214,288
13.36.52.849117,10827,11855,11039,12446,19464,24919,2821,262,14305,13014,24176,274
13.36.52.885237,4927,13521,13856,12757,19306,4896,182,207,12157,12223,19010,24205
13.36.52.922785,12870,12823,17268,10482,19366,15013,14072,23490,4912,12979,8483,24187
13.36.52.961786,18343,10551,2010,12645,19443,17537,23648,3445,12542,13833,3431,293
13.36.52.999644,9053,13189,13897,12153,19304,9209,193,210,12552,13713,24182,24204
13.36.53.039114,12769,12444,23847,11486,19349,11921,11736,13568,12620,10379,925,24184
13.36.53.076522,12419,11457,9020,11079,19441,11476,23871,23423,4260,13977,1687,357
13.36.53.115144,13079,11057,10921,12396,19465,24913,4661,248,14551,12905,24166,291
13.36.53.151248,4964,13642,14114,12238,19330,11548,189,1208,12850,13543,24176,22114
13.36.53.188176,12263,12542,20082,12029,19338,3960,9878,2990,16580,10082,250,24185
13.36.53.225698,12067,12709,16922,10669,19404,13141,23966,23544,4649,13778,11073,24186
13.36.53.262901,18651,10291,2032,12692,19494,14456,23682,7288,12809,13562,410,290
13.36.53.299615,9280,12350,13439,12285,19389,20271,195,9566,12677,13529,24176,20140
13.36.53.337529,11394,12498,23700,10679,19363,13957,10095,23668,7103,12969,10388,23863
13.36.53.380229,17309,10311,6876,12548,19468,24867,22796,267,14764,13261,21905,284
13.36.53.416680,7976,13573,14056,12204,19388,24025,190,212,13554,13268,24174,249
13.36.53.452955,7724,13190,13226,13170,19300,854,771,195,15964,10589,251,24190
13.36.53.491137,12630,12667,22108,10700,19352,13407,11360,23866,11098,11373,4301,24181
13.36.53.529058,18939,10445,2070,12619,19459,12344,23727,3888,9191,13744,198,284
13.36.53.565893,10980,12147,12011,12313,19444,24445,190,227,14247,12875,24182,261
13.36.53.602515,6679,13294,13764,13044,19296,816,169,13193,14405,11239,3568,24195
13.36.53.639306,12760,12423,23329,11701,19366,11070,12536,23888,12274,10417,216,24173
13.36.53.677396,14109,10872,2465,12647,19505,19526,23673,241,13714,13474,12174,286
13.36.53.716232,9707,12412,12575,12412,19370,21133,184,4472,12911,13641,24175,6726
13.36.53.753565,10024,13028,13564,13300,19314,826,157,16363,14058,11556,9744,24205
13.36.53.789182,12771,12607,23864,11075,19355,13322,12630,23880,12411,10572,215,24172
13.36.53.826478,12052,12253,13370,10657,19379,13480,20242,23662,6169,12943,10076,24182
13.36.53.862928,18689,10339,2043,12677,19472,13120,23705,23654,11781,13355,1489,282
13.36.53.899111,11503,12300,13441,12259,19412,22862,184,681,13294,13115,24180,264
13.36.53.936185,7313,13426,13849,13070,19308,839,304,11216,15585,10562,244,24188
13.36.53.974607,12676,12741,20217,10536,19358,13921,11753,23747,7203,12496,8554,24177
13.36.54.012426,18788,10351,2057,12502,19490,12645,23672,23646,11506,13870,653,286
13.36.54.049492,10135,12377,12972,12224,19436,24833,186,242,13906,13243,24177,252
13.36.54.086880,9685,13151,13444,13317,19283,850,164,206,15197,11123,6542,24204
13.36.54.123083,12861,12406,23657,11636,19344,10817,11746,14616,14749,9558,238,24183
13.36.54.159561,12004,12509,15034,10495,19382,13817,13961,23570,5673,12747,9498,24179
13.36.54.196183,18740,10343,2069,12746,19498,15375,23647,6454,13116,13606,10783,289
13.36.54.232564,11217,11833,12161,12358,19443,24665,183,231,14050,13089,24178,275
13.36.54.269155,5963,13381,13762,13229,19295,866,151,8280,16157,10860,247,24198
13.36.54.307479,12826,12699,22666,10551,19354,13986,12471,23665,8505,11433,4333,24172
13.36.54.345217,17868,10671,2033,12687,19497,15047,23688,23555,8037,13850,267,285
13.36.54.382817,10314,12390,13239,12170,19389,22040,193,1626,13407,13775,24174,5237
13.36.54.420243,9573,13167,13612,13348,19302,852,179,7739,13963,11692,10771,24202
13.36.54.455506,12558,12636,20765,11625,19348,9839,11923,13965,15919,10231,235,24181
13.36.54.493528,12711,11937,10912,11225,19438,11958,23841,23616,4229,13832,3827,13564
13.36.54.531061,15560,10234,5277,12550,19477,24899,23406,268,14862,13166,24169,276
13.36.54.568855,5325,13410,14658,12823,19311,832,170,16997,13931,11585,5579,24206
13.36.54.606457,12969,12511,23701,11607,19345,4008,13151,206,16912,9940,254,24184
13.36.54.642633,12036,12313,13352,10829,19387,13243,19053,23633,3599,13320,10774,24183
13.36.54.679610,18771,10415,2040,12543,19465,24864,23586,260,15126,13357,17807,284
13.36.54.717396,6189,13701,14102,12334,19319,6116,191,206,12503,13534,22884,24202
13.36.54.755288,12405,12617,17234,12531,19312,844,6222,212,18551,9834,256,24186
13.36.54.792103,12262,12905,15891,10515,19377,14005,14397,23568,5782,13124,8809,24178
13.36.54.829082,18556,10421,2039,12575,19484,12072,23668,21986,7972,13442,743,279
13.36.54.864596,15145,10580,8454,12544,19476,24856,23578,258,14666,13221,23171,291
13.36.54.900903,6093,13614,14052,12165,19327,12154,201,4043,12600,13681,24176,18579
13.36.54.937706,11356,12947,13927,12742,19314,864,290,4240,16408,11813,7746,24207
13.36.54.972535,12625,12454,23037,11437,19357,10019,12494,17505,13256,10195,226,24177
13.36.55.010224,12464,11663,6991,11962,19456,12378,23831,23537,4745,13894,1559,284
13.36.55.048211,14544,10955,9138,12552,19491,24879,22008,257,14752,12951,24157,283
13.36.55.084368,5889,13665,14133,12261,19357,17092,197,343,12869,14087,24179,18284
13.36.55.121139,11488,12891,14702,12470,19312,1108,8129,211,18322,10196,252,24196
13.36.55.158583,12340,12963,19824,10470,19381,13893,4739,23538,7725,11069,2648,24179
13.36.55.194871,16279,10644,2824,12099,19477,11402,23745,23249,6264,13777,4144,513
13.36.55.231359,15042,10837,10749,12443,19480,24891,19991,248,14783,13190,24165,292
13.36.55.267546,6355,13402,13943,12208,19357,14067,195,197,12864,14237,24178,24055
13.36.55.305458,12418,12613,22089,11820,19357,2342,10454,727,17525,10176,254,24188
13.36.55.342460,12209,12577,13760,10641,19400,13667,21604,23531,5494,12934,11213,24181
13.36.55.379639,18414,10289,2031,12691,19513,14119,23658,424,14602,13645,16102,286
13.36.55.417014,4484,13390,13718,12176,19376,14016,192,4060,12753,13734,24175,23594
13.36.55.455124,12179,12691,14769,12544,19339,954,8284,184,18143,10459,251,24192
13.36.55.491377,12571,12627,23124,10800,19354,13617,8649,23782,9471,11314,5459,24173
13.36.55.528163,15992,10963,4121,11885,19454,12185,23828,23632,5528,13747,3148,277
13.36.55.564749,14974,10809,10837,12408,19491,24888,22092,269,14698,13428,24160,282
13.36.55.600509,7439,13331,13769,12255,19393,21982,194,3682,13460,13379,24172,253
13.36.55.637269,10098,13129,13592,13293,19326,961,174,21952,12822,12536,11245,24202
13.36.55.673390,13041,12431,23850,11029,19363,13679,6165,23775,8311,10984,2005,24170
13.36.55.711606,16327,10918,2275,12508,19471,12187,23701,23612,7213,13805,2500,2197
13.36.55.747816,15719,10736,10347,12470,19457,24858,23622,256,14864,13069,24155,284
13.36.55.784585,5624,13723,14006,12442,19321,4508,186,24159,12404,13370,20242,24214
13.36.55.822142,12491,12619,16943,12431,19340,1519,7355,202,18608,10626,251,24191
13.36.55.857743,12805,12682,22621,10433,19360,13239,7011,23703,6171,12221,5745,24174
13.36.55.896017,18560,10481,2066,12581,19503,19915,23623,14610,12906,13658,3978,284
13.36.55.933445,8922,12988,13255,12251,19437,24869,182,250,14621,12778,24176,276
13.36.55.968955,5375,13544,14103,12360,19331,10091,190,9473,12406,13922,24179,23735
13.36.56.004698,11585,12797,19509,11976,19313,1249,9963,227,18314,10843,257,24199
13.36.56.042952,12084,12273,12272,11427,19446,11927,23846,23367,4103,13619,8999,21573
13.36.56.081219,15554,10621,8820,12503,19484,24897,22317,268,14878,13082,24167,280
13.36.56.118755,5061,13521,14147,12422,19318,5539,190,22003,12263,13187,24185,24200
13.36.56.156344,12860,12449,23608,11613,19358,5758,12215,15752,14783,9897,252,24179
13.36.56.193178,12067,12167,9692,11143,19420,13509,17740,23651,4667,12409,11121,24183
13.36.56.230360,17908,10175,3128,12529,19486,24865,23619,270,14985,12741,24153,278
13.36.56.268666,5239,13464,14104,12826,19314,846,171,226,15106,13365,13859,24197
13.36.56.306190,12721,12504,20200,11720,19353,9225,12186,521,15888,8585,251,24187
13.36.56.342554,12187,12751,14528,10732,19429,13240,23939,23413,3311,13039,1980,5464
13.36.56.381119,16001,10355,4757,12555,19480,24801,23606,255,15000,13348,24118,283
13.36.56.417991,5885,13521,14148,12263,19354,17145,195,1916,12283,15479,24175,20692
13.36.56.455137,12426,12712,16419,12492,19325,1432,10525,208,18692,10262,257,24179
13.36.56.492432,12362,12967,17712,10434,19414,13493,18376,23555,3610,12892,10991,24182
13.36.56.529765,18351,10431,2089,12580,19499,23596,23614,266,14785,13421,21034,285
13.36.56.567656,7025,13667,14188,12307,19326,1249,181,19784,12669,14470,24188,24202
13.36.56.606067,12498,12520,23853,11271,19360,13281,12770,23579,11801,8956,248,24183
13.36.56.643385,12041,12508,14265,10584,19401,13246,23864,23615,3702,13485,9113,18437
13.36.56.681011,16428,10494,8422,12485,19490,24879,22479,264,15014,13166,24165,285
13.36.56.718091,5675,13654,14234,12205,19366,14384,191,8970,12135,14724,24177,24203
13.36.56.755198,12156,12626,19803,11694,19377,11084,13199,6029,15485,9105,239,24180
13.36.56.793886,12559,11993,10603,11292,19433,12490,23866,23534,3648,13658,2954,1160
13.36.56.832433,12756,11380,11062,12515,19482,24896,11228,265,15100,12868,24174,285
13.36.56.867906,5949,13499,14123,12208,19328,9254,188,204,12192,16889,24178,24192
13.36.56.905082,11669,12819,16508,11805,19336,4660,10826,4239,15846,9296,250,24193
13.36.56.942214,12436,12942,18369,10350,19423,12791,16102,23404,3832,11236,9743,24182
13.36.56.980387,17640,10740,2864,12606,19484,24111,23617,258,15108,14602,15334,286
13.36.57.017562,7195,13642,14047,12212,19347,22026,200,452,13655,17833,24186,3833
13.36.57.054353,11156,12926,13433,13275,19318,967,769,664,18652,14829,252,24195
13.36.57.091306,12808,12626,23389,10645,19342,15714,9176,23763,8168,2121,8946,24181
13.36.57.129673,18101,10348,2066,12560,19487,21112,23633,9511,14356,14282,6134,297
13.36.57.166460,10492,12309,13471,12266,19361,17069,197,8105,12551,18436,24173,24211
13.36.57.205782,11225,12234,18925,11892,19374,4299,10836,205,18451,11343,254,24188
13.36.57.242302,12919,12888,18701,10462,19346,13368,5965,23745,5743,7499,5664,24174
13.36.57.278112,14619,10915,4553,11845,19481,10722,23776,23602,4506,13411,242,967
13.36.57.315458,13836,10768,10421,12425,19487,24934,184,246,14471,13537,24178,255
13.36.57.353556,8496,13260,13742,13384,19302,895,167,10217,15194,16181,1588,24203
13.36.57.389983,12763,12474,22536,11828,19336,2075,12334,226,19464,11737,252,24193
13.36.57.425546,12373,12926,18930,10299,19384,13980,18620,23379,4491,10014,2861,23448
13.36.57.464440,16344,10606,7861,12522,19466,24924,23627,251,15280,13358,24168,294
13.36.57.501728,5700,13661,14163,12477,19311,5934,186,200,12433,18194,17547,24206
13.36.57.540002,12764,12478,22917,11332,19361,10595,13220,7712,14770,6814,244,24183
13.36.57.577072,12295,11958,11531,10738,19400,13627,15030,23472,6019,8244,8627,24184
13.36.57.612435,17728,10581,2205,12374,19480,11051,23718,23454,5261,13641,1690,1323
13.36.57.648748,14148,11180,12099,12415,19493,24911,6592,250,14904,12890,24175,279
13.36.57.686441,6898,13345,13704,13340,19305,882,2962,2140,18264,13375,252,24191
13.36.57.725150,12466,12932,19304,10407,19361,13533,5839,23757,10753,6660,235,24181
13.36.57.761438,14364,10975,2962,12490,19490,10974,23744,23585,5999,13413,5333,7314
13.36.57.798004,15774,10390,6385,12543,19500,24909,23274,264,15136,13266,24168,282
13.36.57.835343,5500,13596,14068,12613,19320,845,172,18101,14232,15434,2476,24199
13.36.57.874068,12891,12439,23797,11028,19345,13418,9779,23841,9873,6814,558,24175
13.36.57.911559,14687,10998,4644,12066,19471,11444,23771,23572,6600,13336,2953,10153
13.36.57.947810,16363,10427,7071,12555,19467,24906,12360,249,14807,12821,24173,269
13.36.57.986766,7531,13425,13899,12993,19304,848,167,207,14494,14877,380,24189
13.36.58.024567,12658,12567,20792,10264,19368,14016,9479,23519,6312,10047,7238,24177
13.36.58.062230,16955,10765,2090,12494,19481,11269,23753,23450,6697,13549,2659,432
13.36.58.098271,15292,10723,10731,12482,19483,24881,183,233,14374,12667,24174,6705
13.36.58.137823,10730,12974,13671,13172,19312,859,1038,2086,17683,13593,247,24203
13.36.58.174136,12845,12421,23844,11177,19370,12648,12112,23919,11937,6852,496,24176
13.36.58.211119,13252,11715,9493,11507,19471,11284,23787,23527,4504,12994,3119,282
13.36.58.248647,14447,10674,8011,12596,19495,24859,23655,256,15066,13129,24146,292
13.36.58.284559,6766,13452,13926,12234,19375,22344,186,449,13646,13726,24178,260
13.36.58.320640,9148,12892,13731,13125,19324,859,389,10517,15325,14680,252,24196
13.36.58.357546,12870,12441,23855,11359,19363,11721,13254,13111,16548,9314,245,24186
13.36.58.393820,12165,12361,13286,10915,19425,13341,23933,23576,3638,12921,7267,10773
13.36.58.431673,15238,10741,10885,12351,19507,24898,13623,256,14899,12994,24171,286
13.36.58.468099,6348,13540,14086,12137,19371,17520,186,6690,13114,15048,24182,901
13.36.58.504149,9721,13052,13562,13443,19323,839,175,18944,12623,15886,20832,24204
13.36.58.539849,12722,12553,20389,11519,19375,5554,10384,201,17930,10348,248,24186
13.36.58.575663,12447,12905,20160,10329,19401,13945,15584,23652,5364,10675,9185,24176
13.36.58.612548,17643,10568,2152,12589,19507,19855,23640,264,14273,13589,4943,289
13.36.58.650520,9068,13073,13953,12270,19364,20252,198,1457,12912,15873,24175,11203
13.36.58.687960,11055,12929,13529,13371,19317,866,2801,2002,16802,14311,2115,24196
13.36.58.723676,12845,12454,23859,11326,19367,10834,12991,15074,15885,9308,244,24180
13.36.58.760419,12122,12650,13534,10945,19435,13086,23943,23563,3818,12694,11009,24184
13.36.58.798926,13948,11315,10721,12472,19482,24880,274,235,14484,13066,24176,277
13.36.58.836349,6015,13564,13872,13174,19323,863,554,3663,17227,13306,245,24200
13.36.58.873620,12814,12491,23784,11138,19362,13240,10187,23673,7885,8029,2527,24179
13.36.58.911585,14447,11242,3971,11873,19451,12179,23873,23486,3901,12847,5164,10604
13.36.58.947935,16432,10294,5087,12589,19481,24894,20267,256,14821,12807,24172,288
13.36.58.986271,5778,13477,13792,12913,19311,3602,176,187,13613,15749,4854,24208
13.36.59.023232,12757,12539,21562,11946,19372,3618,9093,204,18111,10494,250,24188
13.36.59.059055,12349,12974,20557,10492,19365,13884,15735,23560,6439,9428,8939,24182
13.36.59.096092,17997,10392,2054,12472,19501,14766,23683,18166,7617,13206,4167,9724
13.36.59.131601,15650,10355,3916,12582,19494,24894,5630,243,14670,12678,24173,267
13.36.59.170075,6756,13238,13627,13449,19295,852,161,9354,14990,14601,243,24199
13.36.59.208176,12804,12669,21452,10296,19373,13839,12129,23648,6348,8238,3182,24177
13.36.59.246170,18234,10551,2223,12284,19477,11309,23769,22303,5564,13164,8752,6729
13.36.59.281487,16085,10278,5640,12534,19490,24873,23673,258,15095,13282,24156,285
13.36.59.318949,5270,13656,14060,12233,19361,20703,193,954,13643,13368,24178,263
13.36.59.352991,5778,13425,13823,13084,19322,1998,173,15268,13235,16305,24187,24196
13.36.59.388960,12158,12726,15555,12873,19325,850,3488,595,18926,12104,240,24191
13.36.59.425498,12578,12779,22447,10427,19373,13925,10470,23664,6390,9967,10118,24176
13.36.59.463092,18374,10306,2086,12591,19504,24852,23487,267,14979,13512,12372,287
13.36.59.501153,7385,13050,13778,12272,19383,22253,189,216,13956,14913,24180,13070
13.36.59.538582,11694,12764,18551,12207,19360,4342,11819,4372,17710,11163,247,24187
13.36.59.575718,12477,12834,21646,10551,19352,13292,10055,23950,11774,7852,221,24187
13.36.59.613690,18338,10362,2043,12622,19496,24457,23641,1763,14743,13442,23809,283
13.36.59.651579,6447,13340,14081,12224,19334,11042,194,15949,12466,16097,17097,24199
13.36.59.690298,12750,12495,23121,11587,19371,10185,12006,11368,16692,10502,254,24186
13.36.59.725315,12643,12839,21978,10734,19359,13650,9012,23703,10135,7901,1715,24177
13.36.59.762420,16769,10644,2053,12660,19486,14568,23679,23457,9824,13489,195,285
13.36.59.800476,9896,12125,12698,12249,19475,24890,18232,249,14989,13031,24169,284
13.36.59.836268,5633,13537,13928,13081,19306,4435,190,197,12569,16016,24192,24210
13.36.59.873546,12776,12594,23475,11460,19359,10910,13287,11146,15846,10627,250,24186
13.36.59.909485,12356,12891,18306,10250,19392,14023,8571,23610,7023,7956,3841,24171
13.36.59.945593,16222,10668,3202,12657,19506,12043,23706,14841,10143,13475,605,291
13.36.59.983760,10015,12554,13073,12277,19458,23398,192,221,14090,12930,24179,269
13.37.00.020065,6331,13303,13849,13086,19312,848,161,7017,14236,15132,666,24201
13.37.00.057268,12798,12511,23867,11032,19367,13192,12204,23955,12305,7863,216,24176
13.37.00.094186,12308,12296,9798,11382,19443,12494,23862,23539,5987,13170,6003,278
13.37.00.132834,13145,11627,12732,12280,19460,24819,180,227,14169,13380,24175,268
13.37.00.170550,7940,13158,13514,13271,19323,855,473,9990,13819,15349,1672,24193
13.37.00.208307,12753,12876,20895,10516,19526,22861,23632,253,14751,13336,24138,283
13.37.00.251541,6625,13429,13981,12245,19360,15432,191,3174,12798,16231,24180,24179
13.37.00.289353,12323,12769,17741,12084,19379,9285,13337,11212,15544,8934,240,24181
13.37.00.327195,12105,12400,13392,10567,19405,13626,21679,23579,4090,11373,11638,24176
13.37.00.363050,17932,10409,2042,12521,19500,16662,23672,8766,11299,13656,10704,298
13.37.00.400545,9931,11962,12969,12315,19437,23019,190,215,13601,14443,24172,9745
13.37.00.438140,10731,13073,13437,13161,19327,848,1074,3382,18397,12608,246,24189
13.37.00.475712,12471,12769,23524,10517,19374,13892,9019,23703,8796,8310,1706,24172
13.37.00.512022,14930,11135,2766,12030,19484,11186,23740,15313,7332,13050,9679,3578
13.37.00.548414,15590,10279,4433,12529,19494,24893,11459,252,14437,12712,24178,273
13.37.00.586095,5902,13584,14176,12954,19331,4959,181,12010,12358,16075,13439,24202
13.37.00.623921,12726,12408,23878,11276,19357,13043,12457,23986,13534,8387,239,24181
13.37.00.661305,12840,11778,10789,10758,19443,13153,23926,23579,5339,12640,11530,21640
13.37.00.697824,16917,10278,2367,12590,19508,24638,23633,247,13949,13336,21534,286
13.37.00.735070,6886,13649,14092,12371,19339,6404,196,5213,12686,15473,24179,17748
13.37.00.772259,11910,12856,14220,12994,19345,851,889,4419,17574,13792,249,24196
13.37.00.808112,12762,12516,22836,10774,19360,13661,7492,23739,8139,8417,2625,24174
13.37.00.845988,16797,10847,2182,12522,19510,15713,23677,18107,10166,13418,1673,288
13.37.00.883425,11518,11562,11627,12442,19500,24884,18640,250,14490,12753,24177,282
13.37.00.919437,5649,13491,13945,13251,19317,844,289,6609,16096,14259,244,24196
13.37.00.958482,12781,12610,23021,10696,19366,13416,8940,23711,8177,8404,2092,24172
13.37.00.995459,15339,10821,3208,12471,19506,11977,23705,11970,11620,13418,20252,292
13.37.01.034252,9052,12604,13581,12160,19367,16039,190,2658,12695,15495,24164,15034
13.37.01.071996,11534,12739,16344,12797,19339,834,4683,421,18828,11760,243,24188
13.37.01.109765,12247,12882,18400,10332,19397,13847,9638,23680,8595,7544,1664,24174
13.37.01.145519,15369,11108,2274,12255,19505,12655,23734,11530,10960,13370,658,287
13.37.01.183404,11710,12019,12644,12359,19495,24871,1587,235,14171,12660,24169,262
13.37.01.220538,7431,13199,13631,13259,19324,838,325,11623,13662,14973,254,24198
13.37.01.257553,12800,12391,23856,11166,19380,13149,12129,23990,12395,8428,243,24178
13.37.01.294856,13472,11686,8754,11420,19455,12434,23952,23568,4671,12958,7206,2824
13.37.01.332366,14680,11232,11298,12436,19508,24872,8009,248,14447,12512,24175,276
13.37.01.369757,5526,13402,14162,12990,19330,4400,167,14317,12389,15780,24170,22437
13.37.01.405919,12140,12561,19730,12024,19363,3263,13333,21491,13128,8220,207,24176
13.37.01.444461,12463,11734,10209,10728,19460,13033,23943,23591,3890,12361,11065,14390
13.37.01.481908,15762,10858,10115,12421,19488,24861,16217,257,14819,12867,24161,289
13.37.01.518916,5641,13396,14233,12634,19337,8403,176,8151,12386,15930,15214,24201
13.37.01.557144,12692,12409,23703,11683,19392,10833,12214,17851,13462,8952,221,24174
13.37.01.595442,14980,11374,7722,11139,19442,13327,22911,23530,3958,12204,10721,23199
13.37.01.631648,16268,10594,3646,12622,19499,24760,23810,247,14725,13255,23725,283
13.37.01.668712,5962,13438,14169,12306,19387,20820,187,635,13312,15057,24178,4868
13.37.01.704670,9854,12967,13569,13293,19349,824,8884,182,18636,12112,251,24177
13.37.01.742928,12295,12870,19865,10359,19370,13459,10217,23902,9795,8433,2306,24174
13.37.01.779532,17401,10935,2056,12512,19515,12285,23813,15413,9813,13205,406,281
13.37.01.816646,12318,12157,12695,12348,19447,24589,168,229,14319,12498,24173,272
13.37.01.853559,6462,13261,14073,12751,19345,9828,181,10595,12492,15713,24185,24198
13.37.01.889185,12016,12648,15094,13146,19338,828,4479,4122,15973,14019,722,24197
13.37.01.924767,12853,12471,22770,10454,19377,13841,8960,23699,7026,9548,7631,24177
13.37.01.963340,18255,10787,2026,12513,19499,13478,23791,23619,10720,13342,1430,285
13.37.02.000102,11902,11680,11949,12450,19504,24871,1814,255,14572,12601,24172,281
13.37.02.036621,5711,13339,13947,13235,19332,810,165,18161,13108,14692,10395,24195
13.37.02.074093,12700,12412,23835,11637,19383,12030,12523,20839,12931,8587,1730,24175
13.37.02.111678,13434,11942,7462,11753,19470,11874,23958,23628,4550,12841,7336,3998
13.37.02.149175,14456,11211,12173,12427,19475,24270,180,241,13890,13388,24172,257
13.37.02.187386,7809,13046,13711,13479,19323,803,214,184,13979,14366,1196,24195
13.37.02.224288,12789,12451,23762,11629,19390,11761,11493,15846,13030,8996,220,24182
13.37.02.261817,13747,11222,2449,12553,19480,19774,23741,247,14124,13151,12845,286
13.37.02.300758,9885,12386,13380,12274,19457,24788,173,228,13910,13355,24178,2230
13.37.02.338317,10623,12828,13267,13495,19363,2590,11880,201,17857,11417,250,24191
13.37.02.376322,12312,12864,19133,10233,19417,13468,21167,23456,4367,11421,11774,24192
13.37.02.414188,18272,10607,2232,12530,19499,23281,23727,251,14208,13233,24143,285
13.37.02.451820,6520,13242,13702,12237,19420,20469,192,197,13190,15054,24176,253
13.37.02.487783,8819,13019,13509,13317,19319,822,2417,6523,16683,13911,245,24193
13.37.02.525829,12551,12650,22917,10384,19389,13792,10847,23618,7890,9382,7630,24177
13.37.02.563447,18380,10693,2034,12653,19518,14610,23745,14930,8951,13149,531,281
13.37.02.600330,11466,12323,13361,12300,19389,15804,196,3330,12954,15252,24183,24196
13.37.02.639826,12534,12441,22244,11767,19393,11518,12631,23658,12520,8933,224,24180
13.37.02.677708,12267,12262,13017,10506,19421,13662,14958,23693,6726,9784,9411,24180
13.37.02.713586,18386,10789,2035,12655,19507,20820,23773,1441,14438,13332,1416,284
13.37.02.750548,10507,12633,13359,12259,19439,23104,190,221,13773,14172,24175,6461
13.37.02.788140,9963,12981,13492,13254,19340,822,7618,5504,16619,13799,243,24195
13.37.02.824914,12799,12477,23496,10551,19386,13503,10668,23769,8367,8911,5113,24177
13.37.02.863964,18370,10656,2045,12565,19520,14194,23757,23586,10308,13124,1449,418
13.37.02.899681,13313,11726,11614,12600,19480,24867,5521,243,14527,12656,24180,268
13.37.02.937435,7651,13030,13555,13497,19320,815,152,190,13683,14060,448,24191
13.37.02.975197,12722,12585,23775,10896,19370,13233,12568,23890,11003,8290,468,24175
13.37.03.011582,13040,11876,9672,11098,19468,12274,23927,23458,5195,12229,9935,18545
13.37.03.048210,17119,10519,3282,12597,19507,23748,23774,257,14250,13245,9643,294
13.37.03.083723,11255,11708,11916,12427,19509,24867,2458,239,14469,12633,24168,278
13.37.03.119097,5544,13431,14185,12536,19354,6723,168,11598,12970,15669,10480,24194
13.37.03.157654,12757,12404,23383,11472,19382,8879,13982,14513,14723,9353,219,24173
13.37.03.194472,12297,12146,10264,10897,19466,12205,23932,23564,5164,12616,11051,23067
13.37.03.231165,17900,10533,2054,12627,19515,20661,23752,255,14187,13348,11242,284
13.37.03.267073,11270,11893,11864,12382,19472,23660,180,218,14039,13759,24173,2423
13.37.03.304930,10229,12955,13454,13205,19342,820,7882,1085,18619,12787,252,24182
13.37.03.342913,12372,12793,20055,10356,19410,13728,9926,23706,7354,9200,3722,24175
13.37.03.379818,17751,10837,2044,12452,19517,13676,23761,15273,12532,13088,368,284
13.37.03.417673,9323,12966,13834,12212,19414,20709,185,630,13327,14627,24174,21366
13.37.03.455728,11815,12565,16413,12855,19350,820,9175,200,18480,12680,243,24186
13.37.03.492767,12450,12822,17139,10400,19428,13501,19885,23586,4425,11444,11822,24193
13.37.03.530963,18170,10558,2367,12581,19496,23346,23770,249,14298,13160,21675,291
13.37.03.567839,8816,12778,13215,12391,19453,22404,179,214,13961,13177,24176,355
13.37.03.604425,8609,12993,13449,13286,19330,825,5501,2064,15088,14231,242,24195
13.37.03.641469,12796,12420,23822,10946,19379,13071,12218,23838,9953,8365,388,24168
13.37.03.679520,16907,11049,2066,12546,19515,13600,23800,20234,8442,13318,1600,281
13.37.03.716985,11711,12177,13213,12334,19485,23913,177,217,14164,13545,24177,255
13.37.03.753869,6756,13132,13679,13509,19327,814,2471,7444,17335,13245,245,24191
13.37.03.792339,12620,12551,23722,10647,19387,13571,9676,23716,8267,8724,2108,24173
13.37.03.829185,15722,11252,5429,11465,19485,11820,23866,23568,5187,12936,7349,275
13.37.03.866004,14378,10853,7314,12560,19509,24722,23698,254,13831,13209,5369,292
13.37.03.901120,9125,13170,13854,12209,19435,22765,189,740,13355,14397,24180,12831
13.37.03.939044,11622,12653,16400,12608,19355,824,5141,3702,17757,13383,252,24187
13.37.03.976023,12502,12656,19485,10383,19409,13752,9897,23777,9363,8586,1546,24172
13.37.04.012698,16338,11009,3511,11858,19470,12063,23893,23564,5474,13269,5752,275
13.37.04.049549,13968,11404,12126,12466,19505,24236,477,233,14086,12971,24174,1983
13.37.04.088374,10952,12820,13735,12947,19349,808,10236,195,18610,11484,257,24190
13.37.04.126375,12345,12792,21737,10529,19380,13764,10230,23671,8254,8720,2609,24172
13.37.04.161958,13806,11811,6560,11828,19465,12328,23827,23536,5925,13019,5530,1011
13.37.04.198970,15343,10706,4577,12565,19508,24837,11685,250,14897,12683,24176,278
13.37.04.236192,5242,13406,14182,12442,19333,3785,168,9670,12747,15488,20776,24202
13.37.04.272980,12245,12728,15397,12993,19351,825,5833,2936,17980,13039,255,24178
13.37.04.308992,12602,12533,23215,10691,19379,13273,10689,23899,10935,8092,221,24167
13.37.04.345682,14957,11216,3179,12173,19493,11922,23868,11332,11488,13339,4210,2916
13.37.04.382699,14524,10760,9283,12473,19507,24820,3738,243,14470,12486,24175,247
13.37.04.421610,10010,12980,13481,13469,19329,812,155,14142,13686,15177,2466,24193
13.37.04.457906,12811,12410,23864,11357,19387,10975,13660,21028,12929,8857,223,24181
13.37.04.495293,13605,11655,8494,11522,19498,11805,23902,23607,8344,12988,6925,3570
13.37.04.532443,15063,10937,8252,12579,19503,24838,22105,257,14924,13041,20639,285
13.37.04.568169,8049,12755,13254,12360,19452,22122,180,249,14209,12468,24174,259
13.37.04.604364,8118,13185,13799,13437,19335,810,1212,10291,15026,14438,244,24187
13.37.04.642128,12679,12579,21405,10316,19383,13747,10262,23723,8305,8669,5124,24172
13.37.04.679606,16895,10900,2190,12230,19524,16892,23761,11538,10916,13107,1711,275
13.37.04.716345,13762,11567,11591,12444,19511,24852,12582,247,14834,12903,24148,290
13.37.04.751573,7860,13007,13705,12218,19449,20319,183,211,14027,13155,24177,272
13.37.04.787473,7281,13124,13563,13347,19336,819,4444,6625,14624,14537,242,24195
13.37.04.824331,12705,12404,23834,11072,19384,13103,11374,23846,10660,8326,1853,24171
13.37.04.862565,15666,10950,3118,11984,19527,14172,23778,21287,8381,13259,3932,1064
13.37.04.899212,14731,10864,7239,12572,19508,24852,13807,250,14785,12607,24169,282
13.37.04.936785,5595,13281,13736,13528,19327,805,166,14118,13117,15176,1640,24198
13.37.04.974489,12805,12353,23873,11330,19387,12404,12626,23949,11849,8471,2219,24171
13.37.05.012157,15002,11335,2762,11958,19511,11984,23869,23588,6315,13009,2314,282
13.37.05.050740,10747,11844,12111,12464,19504,24580,173,247,14307,12641,24174,257
13.37.05.087852,8589,13037,13505,13268,19336,820,4941,4106,18160,13315,246,24190
13.37.05.124932,12795,12521,23115,10765,19382,13305,11328,23797,8977,8445,1824,24180
13.37.05.162940,16698,10824,2034,12614,19514,13087,23827,23604,7561,13166,6047,282
13.37.05.199826,13388,11541,12489,12494,19491,22125,191,227,13880,12879,24180,256
13.37.05.238350,10101,12952,13503,13590,19328,806,725,8098,15353,14462,246,24193
13.37.05.274797,12719,12458,23860,11246,19389,12605,13172,23920,11617,8494,5879,24172
13.37.05.313338,17843,10619,2046,12716,19521,13986,23797,21588,7216,13105,5458,608
13.37.05.349574,13866,11227,10458,12533,19514,24856,2531,234,14421,12400,24170,264
13.37.05.387118,6178,13189,13931,13367,19330,816,2810,9783,16843,13624,240,24188
13.37.05.425230,12750,12462,23841,11064,19371,11903,13005,23967,12013,9182,223,24173
13.37.05.461275,12232,11445,4782,11837,19509,11965,23811,13140,10242,13080,2987,287
13.37.05.499638,14064,10828,7032,12522,19523,24870,18262,254,14762,13080,24149,281
13.37.05.536192,5511,13448,14205,12378,19375,16716,185,1605,13562,13938,24176,252
13.37.05.571496,5416,13140,13492,13544,19327,818,979,14540,14617,15604,8733,24198
13.37.05.607884,13296,12405,23216,11409,19381,12423,12739,24001,14453,9242,234,24180
13.37.05.644215,12444,12461,13288,10580,19440,13384,20108,23635,4182,10089,8341,24172
13.37.05.680813,18110,10469,2037,12667,19534,17323,23738,242,14050,13247,17535,280
13.37.05.718558,6964,13429,14196,12391,19388,9322,185,6679,12780,15828,24172,20783
13.37.05.755785,11801,12825,14216,13307,19337,817,4412,6808,17327,14173,261,24184
13.37.05.792118,12797,12468,23080,10830,19386,13593,10884,23830,9846,8344,1796,24168
13.37.05.829679,16699,10790,2033,12584,19514,12671,23798,7184,9357,13013,7814,281
13.37.05.867990,8071,13198,13681,12264,19459,21391,178,794,13457,13503,24179,253
13.37.05.904697,9003,13211,13743,13261,19344,857,150,15519,12646,15781,11101,24197
13.37.05.940562,12776,12446,23882,11122,19391,13097,11381,23851,11078,8611,227,24180
13.37.05.978083,12489,12410,14567,10211,19426,13779,10849,23820,9106,8535,3035,24169
13.37.06.013454,17787,10804,2681,12085,19496,12139,23904,23676,3613,12484,10502,5223
13.37.06.048875,15608,10535,7488,12529,19513,24853,1527,219,14097,13166,24182,258
13.37.06.087620,7774,13265,13894,13145,19332,800,156,15855,14314,14830,251,24188
13.37.06.124939,12897,12452,23870,11384,19409,12092,13247,23938,11673,8981,221,24168
13.37.06.161400,12413,11901,10630,10532,19446,13125,23465,23659,3778,11636,12337,22447
13.37.06.200415,11602,11493,11818,12443,19512,24852,506,240,14554,12687,24180,261
13.37.06.237521,7509,13301,13870,13030,19347,2898,161,17383,12508,15787,24180,24191
13.37.06.273363,12571,12640,19129,12005,19416,5889,13573,10181,16426,9823,240,24169
13.37.06.311244,11715,12110,10693,10603,19446,13610,22116,23636,3669,11555,12213,24178
13.37.06.347845,18175,10431,2168,12625,19512,24847,17010,258,14816,12700,24167,272
13.37.06.386821,5281,13337,14065,12790,19341,1449,174,15829,12652,15332,248,24194
13.37.06.424628,12737,12356,23860,11346,19403,10529,13603,23793,13227,8748,223,24170
13.37.06.461376,12308,12315,10413,11276,19479,12067,23928,19129,4259,12569,9344,5508
13.37.06.499373,14822,11033,11650,12460,19523,24858,8741,242,14673,12630,24168,275
13.37.06.536956,5803,13431,13972,12835,19355,3496,175,15222,12664,15130,24174,237
13.37.06.571746,9900,12900,13652,13099,19378,962,13426,9943,16945,10542,243,24179
13.37.06.610461,12229,12522,16252,10289,19464,12294,23920,23695,3955,12175,12387,24174
13.37.06.647955,18081,10504,2048,12640,19523,19740,23780,242,12534,13191,11380,276
13.37.06.684829,8588,13085,14075,12161,19405,19482,174,1100,13746,13500,24172,1048
13.37.06.722117,10799,12928,14781,13107,19376,812,8348,8907,18708,12827,238,24186
13.37.06.759623,12415,12840,18767,10230,19426,13654,17998,23664,4275,11439,12259,24187
13.37.06.798194,17672,10536,2500,12602,19520,24662,23659,252,14941,12789,24158,276
13.37.06.836091,5559,13465,14257,12294,19365,7306,174,15408,12724,14880,24173,8428
13.37.06.871883,10338,12941,13631,13491,19346,812,6378,9634,18266,14212,246,24181
13.37.06.908920,12713,12487,23605,10960,19400,13155,12986,23926,9096,8744,2311,24170
13.37.06.945969,15533,10900,2563,12224,19502,11944,23805,2671,11349,13195,2425,285
13.37.06.984388,10091,12218,12770,12348,19438,21991,183,544,13846,13734,24177,1963
13.37.07.022162,10923,12769,15648,12441,19380,1697,11474,3034,18402,11535,248,24186
13.37.07.059201,12635,12755,22284,10596,19400,13493,10771,23864,11530,8972,219,24172
13.37.07.095236,13093,11947,11680,11082,19502,12067,23883,18756,5953,12722,5266,286
13.37.07.133115,13871,11047,10790,12438,19519,24851,2810,248,14460,12615,24169,286
13.37.07.169916,5459,13477,14225,12393,19376,14936,178,11472,13210,13483,24175,252
13.37.07.204676,8678,13038,13558,13484,19343,792,295,15682,15071,15206,3158,24198
13.37.07.241447,12687,12382,23530,10849,19387,13332,10178,23804,10266,8679,2333,24169
13.37.07.280583,18259,10686,2075,12610,19530,13207,23767,237,12115,13159,3178,280
13.37.07.317051,12243,11606,12575,12398,19519,24817,1458,244,14255,12720,24171,251
13.37.07.353884,6241,13303,13801,13459,19353,804,562,16170,13260,15631,23070,24197
13.37.07.390029,12357,12547,19843,12011,19401,4541,13192,14063,16254,11431,246,24184
13.37.07.426956,12192,12913,17224,10242,19438,13370,20845,23660,4414,11504,12217,24187
13.37.07.465026,17257,10495,2957,12637,19521,24675,23751,253,14696,13108,19295,283
13.37.07.501188,9642,13371,14123,12688,19346,1245,158,16557,13910,15223,11902,24197
13.37.07.540085,12361,12638,15926,12997,19396,820,9563,7503,18587,12348,246,24192
13.37.07.575204,12761,12387,23830,10755,19391,13576,10344,23826,9087,9593,7662,24174
13.37.07.612916,16239,11144,3005,12389,19526,16115,23761,1473,8333,12972,5342,285
13.37.07.649865,13586,11091,9286,12489,19525,24837,18720,242,14755,12678,24173,274
13.37.07.686802,5596,13391,14196,12358,19370,12192,182,16162,12522,15483,21647,24199
13.37.07.723587,12430,12397,23730,11659,19424,10503,14005,22113,13981,9151,231,24180
13.37.07.761137,12003,12609,12755,10822,19471,12416,23941,23661,4088,11439,12317,23725
13.37.07.798503,16929,10577,6466,12540,19529,24855,19136,1605,13777,12771,24170,265
13.37.07.836924,5824,13339,14080,12971,19348,880,153,16474,13664,15316,7407,24197
13.37.07.874619,12788,12453,23887,11050,19402,13336,10774,23825,9539,8722,1086,24169
13.37.07.913003,16368,10835,2075,12591,19528,20832,23754,243,12434,13145,2627,280
13.37.07.950484,12050,11507,11444,12462,19525,24852,17446,249,14667,12839,24160,281
13.37.07.986554,5568,13436,14122,13153,19348,1529,161,17146,13061,15422,5667,24198
13.37.08.024616,12806,12479,23824,11537,19399,11249,13934,14617,16812,9835,243,24176
13.37.08.060466,12151,12913,17096,10319,19467,13063,23974,23676,4177,11428,11981,24171
13.37.08.097498,18317,10582,2070,12538,19530,18464,23761,249,14549,13161,9289,298
13.37.08.135024,8068,12839,13922,12239,19410,11353,183,14161,12591,15123,24172,6907
13.37.08.172343,11144,12735,14413,12434,19395,1418,10155,8841,17924,14139,239,24187
13.37.08.209061,12657,12513,23649,10656,19400,13611,10539,23790,8086,9199,6223,24173
13.37.08.247073,18026,10623,2073,12629,19522,18288,23787,238,14253,13044,8019,280
13.37.08.284137,11045,12152,12639,12371,19511,23996,167,909,14055,12694,24170,275
13.37.08.319939,5506,13328,13972,13225,19357,2883,168,15329,12510,15139,24163,24202
13.37.08.357187,12509,12518,20820,11778,19407,11335,13741,19607,14079,10332,240,24181
13.37.08.394599,12172,11065,2518,12460,19521,12979,23777,237,11370,13011,3260,279
13.37.08.433097,14049,10805,10186,12482,19525,24365,170,216,14116,13006,24174,257
13.37.08.471823,10038,12758,14823,12919,19376,844,10006,6174,18511,12780,256,24186
13.37.08.510021,12348,12863,21389,10388,19412,13690,10080,23821,10245,8341,221,24174
13.37.08.545545,13714,11329,3464,12106,19521,12264,23796,8337,8163,12973,5416,1273
13.37.08.583010,14274,10846,8601,12531,19525,24529,3385,244,14701,12684,24140,283
13.37.08.619732,5629,13421,14078,13126,19355,791,369,15362,14934,14283,421,24201
13.37.08.658525,12745,12455,23872,10919,19400,13245,11302,23942,10523,8704,1417,24175
13.37.08.695355,13722,10903,2155,12392,19525,13151,23774,235,10881,13101,3760,282
13.37.08.734063,11136,11764,12865,12383,19480,23876,171,217,14069,12611,24179,253
13.37.08.771063,7934,13054,13466,13443,19355,806,647,15250,15107,14243,237,24188
13.37.08.813935,17829,10626,2056,12639,19534,18765,23754,237,12556,12995,5850,284
13.37.08.851465,8835,12470,13037,12236,19474,21645,180,2345,13652,13516,24177,1792
13.37.08.888753,10914,12768,13995,13267,19373,806,4799,12591,18011,13829,242,24196
13.37.08.924707,12881,12416,23108,11958,19426,7537,13950,16914,15507,10187,241,24175
13.37.08.961091,12239,12406,12621,10517,19447,13284,23461,23687,4520,11513,12608,24005
13.37.08.998427,16902,10497,7102,12637,19529,24854,16230,248,14605,12700,24162,279
13.37.09.036201,5766,13429,14037,12380,19369,8578,170,17692,12880,15601,18784,24195
13.37.09.073620,12413,12507,21556,11877,19412,2886,12897,8378,17417,10910,245,24179
13.37.09.110959,12069,12812,14800,10576,19481,13156,23890,23684,4418,11573,12415,23410
13.37.09.148268,17323,10511,3258,12631,19526,24451,22039,251,14717,12739,24154,277
13.37.09.186310,5852,13369,14095,13050,19366,3208,183,13280,12612,15906,24174,24198
13.37.09.223073,12095,12757,16398,12549,19405,805,9482,8992,18398,12466,245,24184
13.37.09.260346,12232,12846,17652,10204,19411,13778,10465,23764,8119,8233,931,24173
13.37.09.295780,14385,11553,5984,11948,19547,12186,23782,231,10745,13202,4033,282
13.37.09.333742,12103,11923,13235,12290,19443,18797,193,13004,13004,15432,24179,366
13.37.09.371570,9576,13052,13436,13534,19357,789,152,16259,13239,15702,15501,24187
13.37.09.407787,12854,12402,22536,11844,19414,8430,13531,18643,14707,9544,230,24174
13.37.09.445077,12662,12170,12561,10868,19493,12597,23933,23679,4578,12656,9669,5753
13.37.09.482957,14709,11062,10196,12513,19526,24844,23788,250,14673,12772,24146,285
13.37.09.518625,7403,13220,14088,12239,19398,16434,185,10868,13106,14908,24179,15391
13.37.09.556093,11784,12635,15740,12967,19378,1754,9810,2410,18188,13010,256,24183
13.37.09.592970,12526,12737,21720,10638,19390,13256,11612,23834,9255,8826,5092,24176
13.37.09.630144,17474,10836,2472,12521,19513,12054,23807,23643,8837,13554,3093,282
13.37.09.667362,11818,12079,13179,12456,19432,18633,189,206,12761,16194,24179,7336
13.37.09.706121,12064,12590,14782,12969,19363,841,9993,206,17929,14408,249,24195
13.37.09.742123,12803,12454,23845,10795,19388,13339,12820,23812,10909,7365,730,24172
13.37.09.779620,15944,11051,2711,12270,19493,11748,23774,23513,6876,12712,5707,281
13.37.09.816256,14370,11141,11298,12445,19525,24381,183,226,13834,13177,24178,264
13.37.09.854406,7706,13203,13923,13281,19333,814,2204,1477,16514,15134,1538,24203
13.37.09.890862,12679,12526,22936,11448,19406,12439,14928,18738,15035,9239,242,24187
13.37.09.926952,12223,12882,17908,10282,19426,13524,21555,23606,5113,10537,11617,24177
13.37.09.964348,18058,10562,2053,12711,19534,21181,23663,247,14604,13295,17169,288
13.37.10.001970,7573,12906,13794,12226,19409,14817,195,6940,13228,14289,24183,6349
13.37.10.039144,11363,12653,16803,12761,19378,812,8392,701,17111,14634,245,24198
13.37.10.074753,12778,12428,23872,11009,19391,13306,10333,23817,10951,8098,1003,24176
13.37.10.112900,15785,11243,5893,11518,19494,12813,23927,23618,4238,12049,12107,24183
13.37.10.148577,16685,10459,2761,12619,19524,23195,23690,9144,13157,13192,17636,289
13.37.10.184287,10697,12198,12778,12403,19481,21864,180,220,13612,12483,24174,265
13.37.10.221605,9316,12943,13700,13025,19360,808,9788,208,18572,13292,248,24192
13.37.10.258826,12671,12486,23630,10920,19387,13183,13193,23921,12354,8969,232,24188
13.37.10.294313,12125,12794,16817,10300,19432,13939,22761,23472,4265,10824,12081,24192
13.37.10.331598,17207,10473,2896,12621,19526,23793,23659,236,12270,13268,3836,289
13.37.10.367348,11319,12380,13243,12313,19435,19140,185,3697,12849,14832,24171,4096
13.37.10.405362,10755,12991,13797,12992,19369,808,3957,5605,17773,13481,246,24193
13.37.10.441967,12794,12365,23530,11067,19396,13121,11418,23819,10939,8594,218,24181
13.37.10.478101,12239,12476,11100,10692,19446,13411,22507,23659,7225,8262,5071,24169
13.37.10.512789,15343,11181,6434,12049,19502,12304,23868,23609,4613,12415,10533,7690
13.37.10.548840,16241,10481,5145,12604,19543,24146,23674,249,13724,12945,18805,287
13.37.10.585071,8367,13142,13839,12218,19409,15814,192,8172,12684,15091,24169,20923
13.37.10.622488,11404,12839,13499,13249,19380,1195,6427,2909,18134,13134,248,24189
13.37.10.658204,12738,12447,23854,11148,19382,13255,13065,23921,12266,8751,242,24176
13.37.10.694311,12064,12430,10795,10686,19451,13209,23965,23639,4850,11360,11506,24185
13.37.10.731080,18059,10560,2123,12566,19532,18392,23682,1019,13459,13133,5528,293
13.37.10.767135,12226,11388,11740,12410,19525,24845,4017,253,14562,12794,24168,278
13.37.10.802893,5972,13453,14213,12320,19393,13914,192,1670,12648,16190,24189,21136
13.37.10.839908,12230,12671,15088,13085,19379,811,7720,188,18493,12495,253,24190
13.37.10.875583,12700,12442,23302,10596,19395,13633,9032,23645,9029,8301,2508,24173
13.37.10.912995,16040,11208,5371,11558,19488,12174,23857,23540,5156,12443,8042,670
13.37.10.949844,13861,11009,10329,12489,19533,24846,18108,248,14608,12665,24177,274
13.37.10.987013,6181,13180,13790,13344,19344,807,187,13105,15866,14887,6853,24199
13.37.11.024901,12773,12355,23790,11201,19388,12624,13214,23870,10349,8587,516,24168
13.37.11.062881,15777,11064,5124,11703,19495,12336,23853,23609,4491,12531,10696,9604
13.37.11.099339,14902,10922,8784,12505,19511,24849,16071,259,14522,12565,24175,274
13.37.11.136814,5996,13370,14045,13045,19353,1540,182,17000,12656,15615,24185,24199
13.37.11.173577,12584,12442,23583,11560,19408,7004,14738,10652,15104,9386,249,24183
13.37.11.211121,12148,12317,10396,11276,19481,13110,23956,23649,4520,12227,11921,24174
13.37.11.248080,17640,10525,5314,12565,19520,24415,23694,261,14508,12654,24155,285
13.37.11.286023,6251,13342,13885,12227,19394,17949,192,224,13190,15030,24175,13117
13.37.11.322195,10898,12965,13537,13037,19356,808,7483,203,18473,12919,252,24180
13.37.11.360126,12299,12736,16010,10344,19435,13080,22025,23503,4640,10699,12599,24180
13.37.11.397675,17842,10519,2049,12608,19525,22533,23658,249,13855,13063,24148,282
13.37.11.436358,6056,13391,14127,12606,19349,2031,170,15238,12637,15923,20836,24199
13.37.11.473632,12483,12626,17858,12547,19368,989,10624,708,17617,14430,244,24193
13.37.11.508926,12753,12512,23566,10797,19390,13404,9877,23771,8944,7861,4938,24167
13.37.11.547063,17752,10803,2068,12544,19523,15261,23694,23673,10521,13226,3406,282
13.37.11.583971,11531,11697,11655,12435,19519,24866,856,254,14297,12607,24173,276
13.37.11.620651,6601,13278,13922,12804,19356,1672,175,19428,13096,15614,5523,24208
13.37.11.658017,12817,12479,23883,11092,19380,13330,11422,23899,11170,8107,504,24171
13.37.11.696512,16813,10984,2725,12449,19488,12205,23713,13020,9999,12947,2884,293
13.37.11.733533,12486,11313,12592,12370,19473,24507,669,239,14165,12757,24181,258
13.37.11.771059,7649,13056,13411,13429,19343,818,7789,201,18063,14146,245,24202
13.37.11.807884,12726,12408,22691,11823,19397,8970,13421,379,16791,11681,251,24184
13.37.11.843403,11096,12953,18380,10263,19422,13808,16741,23552,7121,9102,9114,24173
13.37.11.880336,17304,10595,2012,12637,19530,23736,23676,255,14622,12948,24146,287
13.37.11.919629,6281,13388,14050,12387,19368,3181,174,15667,12392,15951,24184,22347
13.37.11.955937,11858,12824,13623,13109,19380,1108,12989,192,18371,13195,249,24197
13.37.11.993227,12366,13010,17701,10311,19416,13746,22744,23631,5475,10648,9713,24174
13.37.12.030929,17944,10679,2005,12639,19545,17510,23686,6168,14001,13201,9705,283
13.37.12.068216,8972,13046,13711,12235,19387,10434,192,5631,12692,15041,24177,18165
13.37.12.106113,11770,12856,13896,13188,19355,821,6648,201,18537,12810,254,24196
13.37.12.143430,12236,12952,20410,10463,19409,13875,11981,23666,9014,7971,4279,24175
13.37.12.180368,17734,10746,2047,12430,19510,12771,23764,23516,7579,12914,5519,276
13.37.12.217112,12200,11510,11564,12402,19513,24853,1168,236,14338,12787,24167,262
13.37.12.254127,7025,13192,13510,13510,19334,816,2303,193,18440,12786,265,24185
13.37.12.293396,12279,12952,18867,10107,19444,13810,14952,23588,6249,9956,7918,24174
13.37.12.330765,17228,10549,2024,12544,19528,14524,23738,23551,7373,12728,6386,280
13.37.12.366815,12827,11402,11355,12393,19535,24845,2939,251,14617,12920,24147,281
13.37.12.402732,6456,13364,13854,12286,19364,6696,189,7041,12596,16321,24185,14263
13.37.12.439570,12097,12746,15828,12848,19358,816,4613,2271,17977,13391,259,24184
13.37.12.476065,12707,12704,22554,10768,19393,13016,12666,23946,12170,8650,226,24173
13.37.12.511309,12640,12562,14675,10594,19465,12932,23899,23595,4224,11433,12641,23560
13.37.12.548318,16764,10440,2456,12553,19526,23767,23672,258,13531,13328,6021,290
13.37.12.584162,11237,11728,12571,12377,19516,24739,5857,260,14600,12585,24175,268
13.37.12.620960,7465,13318,13596,13290,19343,813,160,15133,13099,16141,16671,24209
13.37.12.657522,12674,12453,23150,11529,19391,12340,14038,23962,12213,8300,235,24173
13.37.12.695798,14341,11535,7310,11832,19519,12905,23696,18966,10954,13169,4233,284
13.37.12.734480,10259,12030,12265,12357,19453,22814,188,218,13547,13270,24175,13228
13.37.12.772480,11372,12793,15516,12803,19374,1147,13457,1640,15933,9867,232,24179
13.37.12.810798,12271,12585,15548,10331,19405,13728,9836,23643,7129,8925,5924,24175
13.37.12.846835,17293,10844,2029,12676,19506,19336,23696,263,12341,13150,5225,299
13.37.12.883484,13101,11758,12768,12424,19485,24358,705,241,14531,12515,24177,282
13.37.12.919715,5999,12804,13945,12383,19363,10349,183,4013,12464,16015,20640,24197
13.37.12.957556,12647,12479,20046,11752,19422,11288,14198,22301,12788,8765,233,24179
13.37.12.994964,12473,12112,8809,11186,19483,13233,23976,23539,4529,12457,13133,24182
13.37.13.031285,17174,10638,2848,12543,19545,17653,23760,247,12479,13038,5259,286
13.37.13.067599,10742,12447,13482,12233,19403,14579,187,3018,12723,15153,24180,21270
13.37.13.106556,12460,12585,16130,12454,19393,875,10475,456,18268,12732,248,24182
13.37.13.143564,12286,12284,12518,10643,19463,13489,22573,23596,5737,9867,9614,24170
13.37.13.180896,17215,10888,2004,12560,19535,17781,23785,295,13030,13108,9184,275
13.37.13.218635,7545,13059,13885,12158,19436,16504,179,4581,12566,14506,24175,11479
13.37.13.256129,12094,12596,19008,12172,19406,2274,13190,207,17442,11473,246,24191
13.37.13.293578,12292,12857,14823,10328,19464,13583,22156,23565,4735,11934,12665,24174
13.37.13.330908,17220,10554,2019,12575,19532,16119,23785,1692,12704,12941,3895,286
13.37.13.367869,10028,12424,13248,12309,19473,24059,169,209,13448,12991,24179,247
13.37.13.405165,10372,12815,14080,12820,19380,3127,12162,200,18009,11997,257,24184
13.37.13.443292,12392,12838,18847,10313,19427,13857,11045,23454,7582,10561,12692,22531
13.37.13.481561,16656,10605,2809,12582,19530,20686,23796,233,14188,12974,21783,279
13.37.13.519114,7055,13160,14168,12293,19380,13629,186,18872,12667,14832,24174,4850
13.37.13.555383,10956,12849,14959,12467,19399,814,8940,3801,18039,12888,243,24185
13.37.13.592568,12679,12547,23201,11135,19416,13421,11793,23883,10842,9292,912,24169
13.37.13.628961,13644,11583,8611,11727,19516,11865,23826,2748,9871,12953,6516,276
13.37.13.666564,13135,11048,10066,12402,19540,24863,222,227,14146,12759,24172,259
13.37.13.704243,8005,13152,13889,12734,19351,2296,160,17759,13091,14439,14018,24193
13.37.13.740576,12650,12445,23160,11301,19417,13013,12590,23869,10627,9272,795,24180
13.37.13.778593,13165,11547,8805,11400,19513,12337,23974,23652,5068,11999,12436,20046
13.37.13.815632,15070,10938,10518,12440,19546,24858,12408,244,14570,12661,24176,272
13.37.13.853397,6668,13264,14014,12668,19366,1834,158,17928,13372,14407,3728,24201
13.37.13.891163,12801,12363,23176,11384,19417,9992,13869,22549,14080,10042,239,24179
13.37.13.927296,12072,12740,16597,10340,19423,13663,11335,23766,7635,9764,5064,24170
13.37.13.963564,16695,10800,2150,12535,19542,16248,23754,239,13372,13281,17382,287
13.37.14.000920,10861,11884,12740,12309,19524,24860,1404,242,14317,12806,24172,259
13.37.14.037580,8112,13253,13817,13146,19365,3467,171,18238,12472,15344,22653,24198
13.37.14.073959,12713,12523,18171,11996,19422,8921,15301,1921,11259,9045,252,24175
13.37.14.112226,11425,11432,8812,11182,19516,11961,23861,23375,5890,11911,9492,4827
13.37.14.149655,13955,10881,10379,12456,19551,24858,1093,233,14184,12835,24178,256
13.37.14.187794,8654,12984,13520,13345,19352,821,5372,9021,14587,14151,1605,24197
13.37.14.224140,12669,12516,21893,11461,19424,10413,13409,23967,12963,8972,229,24171
13.37.14.261578,12326,12332,13065,10736,19491,12544,23938,23619,4837,12562,12181,19449
13.37.14.298870,15229,10816,7796,12491,19548,24863,6389,246,14447,12614,24162,273
13.37.14.337250,7453,13037,13668,13493,19354,808,2494,11477,15142,13590,668,24196
13.37.14.374986,12816,12394,22820,11342,19411,13165,11255,23841,10716,9287,1179,24172
13.37.14.412832,15600,11090,2542,12403,19543,17598,23733,243,13220,13340,6130,285
13.37.14.451576,9018,12640,13592,12276,19509,23737,179,225,14228,12614,24175,259
13.37.14.487853,8805,13016,13623,13428,19362,824,4558,3776,17736,12653,247,24199
13.37.14.525534,12734,12492,22905,11088,19395,13338,12374,23854,10864,9544,1717,24172
13.37.14.562828,15059,11189,3474,12090,19526,11734,23765,14468,8204,12606,10157,4169
13.37.14.599709,13560,11155,12059,12378,19532,24862,3105,246,14568,12405,24166,281
13.37.14.636259,6712,13414,14130,12413,19389,11473,189,14612,12468,15603,24178,24195
13.37.14.672727,12050,12689,20019,12171,19400,1501,9994,187,17851,12792,254,24191
13.37.14.709579,12531,12609,19660,10368,19410,13843,9641,23652,7515,9621,8027,9139
13.37.14.749027,14745,10681,8197,12489,19524,24843,18226,251,14607,12930,24144,291
13.37.14.785530,7671,13659,14016,12222,19365,4637,187,14437,12506,15549,24182,24203
13.37.14.823707,12738,12401,19615,11849,19412,10910,15492,23417,14033,9460,229,24176
13.37.14.861531,12391,12273,11870,10718,19446,13717,18519,23687,7245,10120,11068,24177
13.37.14.897836,17042,10571,2798,12547,19537,23617,23718,261,14621,12914,22076,282
13.37.14.935561,7489,13231,13800,12134,19401,14184,192,8225,12548,14705,24181,13259
13.37.14.972012,10880,12926,13476,13390,19334,823,3726,208,13877,14424,4223,24200
13.37.15.008831,12712,12482,22680,11073,19406,13607,9496,23414,5853,11053,12634,24173
13.37.15.047386,17143,10618,2144,12608,19529,21282,23654,240,11362,13165,4731,292
13.37.15.084643,9684,12742,13511,12267,19423,14692,194,17289,12650,15278,24170,23842
13.37.15.122572,12125,12689,16106,12916,19365,820,6188,179,18101,12088,250,24184
13.37.15.159680,12510,12718,19069,10311,19421,13835,18134,23625,4917,11683,11480,24189
13.37.15.198013,16790,10649,2859,12606,19540,24835,23644,254,14563,13038,24147,280
13.37.15.237141,7190,13259,13795,13037,19358,1046,166,18663,13332,15496,13156,24202
13.37.15.274414,12773,12450,22575,11406,19404,12002,13283,23936,11637,8895,506,24178
13.37.15.312489,14436,11153,5262,11726,19487,11887,23826,23605,6590,13029,6474,4727
13.37.15.349054,15270,10571,10058,12523,19535,24832,23676,283,14408,12991,24152,286
13.37.15.386065,6485,14074,14111,12756,19363,1603,171,22493,13290,15500,23144,24202
13.37.15.423668,12539,12422,20603,11581,19401,10714,14971,21938,11784,9393,218,24176
13.37.15.462404,13945,11646,9464,10881,19481,12481,23940,23642,4706,12267,11953,21319
13.37.15.498258,16803,10541,6234,12512,19527,24860,11200,266,14614,12869,24161,276
13.37.15.536528,6249,13353,13716,12987,19355,1156,181,16386,12364,15527,24098,24203
13.37.15.573311,12351,12581,17429,12293,19401,4777,13695,205,17371,11454,250,24180
13.37.15.610070,12317,12835,19896,10291,19417,13786,8982,23725,8817,8965,3830,24189
13.37.15.646846,17100,10950,2851,12340,19474,11724,23756,215,7640,12765,7324,278
13.37.15.682941,14220,10802,9927,12450,19509,24827,23063,231,14625,13080,24146,301
13.37.15.719087,6994,13257,14031,12386,19376,13681,188,14039,13428,13865,24180,8543
13.37.15.755640,11885,12758,13460,13344,19336,828,886,18893,14680,14554,242,24181
13.37.15.791867,12638,12447,23426,11060,19406,11689,14515,23370,13618,9643,239,24182
13.37.15.827709,12083,12633,15958,10446,19454,13170,23950,23616,4628,12102,11782,16292
13.37.15.865674,14762,10596,6481,12543,19524,24191,23682,256,14478,12876,19275,288
13.37.15.901406,9295,12873,13507,12203,19467,23760,187,1441,13534,13482,24175,2423
13.37.15.938671,11002,12739,13551,13159,19368,852,10116,1043,18247,12294,253,24189
13.37.15.976170,12521,12662,20501,10311,19416,13808,8993,23718,8399,9154,2759,24173
13.37.16.012669,15057,11313,4107,12137,19515,11732,23754,23651,5795,12278,8246,10759
13.37.16.049232,14759,10821,11921,12321,19506,24621,185,246,14022,12953,24170,265
13.37.16.087552,7890,13167,13623,13192,19354,811,179,20856,13080,15951,18461,24204
13.37.16.124124,12732,12505,19866,12054,19405,2302,13189,217,18284,12658,253,24179
13.37.16.160350,12191,12818,14731,10380,19425,13425,23688,23684,4657,11772,11496,22652
13.37.16.198573,16072,10391,3384,12599,19529,18250,23657,22598,13343,13110,12673,283
13.37.16.235262,7864,13227,13992,12128,19388,7747,193,17684,12394,15666,24179,24208
13.37.16.273669,12518,12449,23135,11547,19392,12527,11951,23281,13238,9325,228,24189
13.37.16.312031,13269,11991,8511,11371,19476,12231,23921,329,4607,11498,11990,24181
13.37.16.348345,16504,10411,3274,12611,19528,24049,23641,2804,14518,12883,24155,287
13.37.16.386090,6503,13291,13985,12544,19344,10823,186,429,12380,15537,24173,19057
13.37.16.422556,11834,12649,17994,12446,19415,9038,14779,21122,15581,11235,246,24185
13.37.16.460656,12044,12825,15369,10378,19423,13908,6217,23658,8185,9072,6148,24175
13.37.16.496528,16506,11017,2663,12507,19539,12042,23762,15865,7688,12987,4493,1863
13.37.16.532595,14538,10616,9241,12487,19536,24857,12296,257,14515,12925,24176,268
13.37.16.571212,8968,13189,13526,13269,19352,1894,174,19496,12404,15205,13641,24199
13.37.16.607320,12553,12411,22969,11842,19407,10099,13282,22933,13824,9733,219,24173
13.37.16.645084,12714,12209,12226,10633,19446,13591,16783,23672,7167,9677,8383,24173
13.37.16.680948,17440,10684,2033,12580,19514,13367,23696,23642,11411,13275,1168,288
13.37.16.717855,9818,12727,13413,12191,19430,22284,188,6481,12786,14794,24173,11425
13.37.16.755745,11587,12772,14701,13046,19349,831,8870,489,18247,12851,252,24198
13.37.16.791561,12731,12410,23784,11060,19394,12959,12307,23812,8958,9085,3997,24174
13.37.16.830021,16887,11016,4283,11797,19507,11726,23766,23643,6585,12822,2631,283
13.37.16.866202,13922,10957,10090,12376,19503,24859,18063,266,14387,12769,24157,287
13.37.16.902233,7118,13302,13865,12143,19383,17044,192,215,12777,15346,24174,23785
13.37.16.939681,12095,12697,16826,12170,19402,6666,14294,206,18052,11826,247,24183
13.37.16.976719,12157,12958,18083,10318,19410,13723,7120,23555,8313,8904,3982,24174
13.37.17.012908,15811,10993,2108,12431,19538,12656,23723,13263,8998,13046,2826,288
13.37.17.050600,11343,11359,12481,12304,19494,23471,188,219,13709,13423,24176,1920
13.37.17.088216,9996,12972,13416,13433,19347,803,167,13342,15905,14602,250,24197
13.37.17.125161,12700,12437,23360,10820,19405,13416,9259,23926,13550,9537,225,24173
13.37.17.162064,13374,11827,6899,11919,19531,11740,23726,10301,8636,12796,7836,11224
13.37.17.199261,14363,10535,6860,12583,19537,24835,23655,257,14618,12967,24157,286
13.37.17.235664,7020,13159,13913,12304,19384,11487,196,21324,12449,15506,24062,24200
13.37.17.273213,12355,12606,17642,12009,19413,8657,14853,22460,14028,9648,238,24175
13.37.17.311238,12198,12570,14422,10640,19474,12316,23918,23640,4756,12022,12187,24170
13.37.17.348032,16826,10501,3150,12561,19529,24832,22646,267,14648,12866,24157,282
13.37.17.386100,6485,13353,14003,12326,19360,8987,193,231,12543,15337,24181,21799
13.37.17.422870,12075,12543,20542,12025,19411,9353,13910,10706,16399,10791,251,24186
13.37.17.460106,12178,12969,18582,10377,19417,13728,12254,23498,6377,10188,10446,24176
13.37.17.497618,17411,10598,2104,12583,19535,22073,23647,250,14560,12794,24150,289
13.37.17.535092,7941,12894,13556,12198,19458,23372,183,220,13600,12874,24179,263
13.37.17.570999,8917,13046,13435,13331,19353,826,1350,11437,15881,14216,243,24191
13.37.17.608983,12595,12741,19024,10321,19432,13776,8092,23847,10646,8727,1284,24167
13.37.17.646323,16082,10711,2050,12560,19552,12901,23700,497,10170,13101,2833,295
13.37.17.684097,11114,12252,13468,12179,19445,21498,187,306,13632,13232,24177,261
13.37.17.720220,6947,13207,13955,12947,19363,3300,189,15871,12348,15170,23833,24203
13.37.17.757045,12631,12459,23245,11573,19405,10489,15154,20141,13638,9704,224,24173
13.37.17.795151,12915,11606,5994,12086,19528,11777,23758,17086,7596,12785,3990,286
13.37.17.833630,11809,11336,11621,12435,19507,24667,189,659,13816,12848,24175,268
13.37.17.870523,7724,13307,13864,13341,19363,802,234,11225,15058,14496,1187,24205
13.37.17.907660,12800,12409,23314,10887,19401,13391,9575,23745,10146,8590,2110,24180
13.37.17.947374,17228,10497,2333,12539,19542,22661,23666,240,13233,13056,14596,289
13.37.17.984427,9804,12051,13001,12301,19490,21445,186,1884,13217,14670,24181,21304
13.37.18.022759,12183,12783,14424,12757,19394,2328,13085,553,17243,11387,266,24178
13.37.18.060634,12105,12797,14702,10346,19443,13854,14748,23666,8170,9257,8096,24176
13.37.18.096807,16985,10740,2325,12585,19543,16551,23691,253,12019,13202,7219,284
13.37.18.134444,9715,12824,13457,12214,19427,16140,192,10555,12626,15121,24190,21951
13.37.18.172885,12367,12767,15151,12869,19378,819,9429,753,18169,12747,250,24185
13.37.18.209577,12409,12965,18525,10426,19407,13724,8950,23727,7858,9035,1978,24171
13.37.18.246272,16069,10902,2254,12541,19554,13321,23717,2271,13297,12919,10102,282
13.37.18.284118,10530,12101,13158,12261,19504,22713,181,233,13990,12792,24175,251
13.37.18.321473,10230,12922,14466,13165,19401,1792,9844,186,18115,12033,246,24189
13.37.18.359247,12565,12697,21761,10728,19403,13321,11218,23822,10511,8888,276,24173
13.37.18.395810,14724,11276,2322,12451,19545,13758,23708,250,10008,13011,6018,282
13.37.18.434455,9645,12664,13806,12362,19390,15562,194,2681,13291,14694,24179,12680
13.37.18.472345,11846,12819,15097,12604,19400,4445,14425,1548,18110,12253,251,24186
13.37.18.509480,12466,13011,18347,10395,19428,13895,10102,23751,8611,9003,5251,24172
13.37.18.546700,16956,10779,2892,12357,19534,11829,23783,15378,8036,12954,7479,278
13.37.18.583100,12951,11439,12344,12353,19492,24576,175,229,13984,12343,24173,318
13.37.18.621722,11077,12988,13489,13494,19359,814,6965,3630,18282,12792,251,24187
13.37.18.658992,12629,12718,19459,10548,19411,13272,11665,23785,9129,9040,5662,24173
13.37.18.696831,17001,10661,2225,12594,19553,18529,23689,246,11985,13086,7731,285
13.37.18.734192,9871,12399,13396,12253,19463,19229,197,265,13699,13438,24171,915
13.37.18.771320,10024,13068,13489,13439,19371,825,6858,4410,18101,13033,245,24189
13.37.18.809552,12444,13068,16618,10258,19437,13852,12229,23689,7294,9111,5604,24171
13.37.18.846189,15940,11092,3307,12275,19523,11733,23783,16736,7319,12731,8091,290
13.37.18.883185,12631,10961,10670,12535,19544,24855,17493,249,14596,12692,24168,281
13.37.18.919306,6755,13369,13946,12257,19406,18176,189,4783,13091,15464,24184,24199
13.37.18.956562,12602,12570,20790,11902,19429,7501,15800,12516,14898,9864,236,24183
13.37.18.993826,12081,12972,16588,10270,19427,13820,10302,23689,7781,9698,4650,24172
13.37.19.029616,16273,10825,2129,12567,19544,21365,23699,251,13748,12881,17372,283
13.37.19.068713,7293,13352,14063,12241,19396,14862,188,4776,12913,13827,24173,15503
13.37.19.105511,11811,12624,15468,12788,19385,1349,11532,187,18319,13612,257,24184
13.37.19.142621,12509,12750,21241,10528,19425,13835,10434,23657,7519,9063,4151,24170
13.37.19.180112,17037,10681,2346,12424,19552,14404,23711,246,12457,13128,14991,282
13.37.19.218233,8303,13069,13793,12259,19471,20067,191,10592,13046,14614,24173,19007
13.37.19.255900,12125,12616,19706,11894,19419,10500,15431,23945,15127,10292,234,24174
13.37.19.294204,12103,12413,12787,10524,19484,13430,23966,23628,4623,11844,12539,24174
13.37.19.331778,15326,10811,4684,12593,19533,21665,23697,241,11327,12915,7926,287
13.37.19.366911,11686,11409,11636,12368,19541,24781,1722,247,14429,12770,24165,280
13.37.19.402691,6664,13466,14109,12458,19373,8987,188,11720,12601,14592,24176,247
13.37.19.438063,10343,13145,13814,13240,19369,799,7576,7566,15403,15021,1062,24200
13.37.19.474787,12888,12791,23154,10449,19403,13677,9675,23773,9215,9287,2752,24170
13.37.19.512440,14765,11232,5871,11977,19538,11991,23893,23600,5358,12680,9867,15964
13.37.19.548264,15954,10385,7977,12590,19548,24848,12281,249,14464,12351,24173,268
13.37.19.587147,7611,13175,13785,13444,19356,805,2786,11703,13754,14693,889,24205
13.37.19.624119,12703,12368,23069,11032,19398,13396,12592,23795,9321,9012,6681,24170
13.37.19.663155,17019,10809,2386,12653,19549,13563,23768,8558,9712,13039,3847,288
13.37.19.700614,10943,12278,13605,12231,19459,22584,180,225,13600,13450,24174,11109
13.37.19.738858,11591,12809,14680,12822,19401,1153,11078,1507,18061,12910,249,24185
13.37.19.776345,12376,12964,15237,10328,19439,13901,14470,23664,7633,9620,7919,24170
13.37.19.813154,16674,10684,2172,12561,19555,24120,23740,258,14610,12611,24155,289
13.37.19.851712,7935,13448,14128,12444,19381,13177,191,11947,12510,15444,19781,24199
13.37.19.890182,12637,12556,18238,12015,19426,6355,15568,8956,17494,11576,248,24180
13.37.19.927094,12130,12607,13980,10410,19474,13444,19507,23677,6345,10360,10986,24179
13.37.19.964578,16688,10468,2798,12506,19560,16953,23702,242,13066,13059,16252,287
13.37.20.001142,9321,13052,13690,12203,19442,21377,184,1919,13253,14155,24177,13170
13.37.20.038918,11619,12769,16801,12262,19416,2042,14003,543,17985,13237,245,24194
13.37.20.074693,12745,12440,22793,10955,19421,12147,14666,23984,11791,9447,223,24175
13.37.20.111404,12636,12047,11645,11308,19499,11974,23883,23600,5294,12485,9060,2046
13.37.20.149592,13405,10813,11254,12415,19542,24644,185,965,14060,12841,24170,260
13.37.20.187458,8413,13087,13675,13451,19364,802,848,12215,14691,15034,6463,24199
13.37.20.223693,12588,12450,22856,11461,19422,10008,15752,11300,15778,10443,245,24179
13.37.20.260287,12074,12762,12876,10373,19471,13294,21935,23641,6875,10159,10776,24178
13.37.20.296737,17290,10843,3093,12319,19537,11880,23848,23581,4678,12330,9803,4110
13.37.20.332679,13899,10744,11625,12408,19552,24836,12318,246,14633,12477,24171,271
13.37.20.370064,6695,13371,14091,12416,19380,11511,197,3691,12958,13934,24176,244
13.37.20.404276,8871,13160,13461,13536,19359,810,3314,7931,17178,13409,253,24193
13.37.20.441119,12726,12406,23394,11539,19414,12033,14638,23974,12712,9217,230,24173
13.37.20.477650,12133,12722,13005,10795,19474,13142,23952,23610,4530,12160,24143,287
13.37.20.518839,6800,13347,13972,12281,19403,16380,189,8876,12945,14763,24174,8750
13.37.20.554791,10276,13004,13468,13461,19358,805,3673,10578,16280,14230,1068,24198
13.37.20.591348,12722,12491,22239,10619,19415,13469,10063,23793,9598,9043,5229,24171
13.37.20.630035,17276,10710,2162,12478,19537,13861,23778,2076,10694,12791,4362,275
13.37.20.667108,11303,12221,12888,12384,19529,24673,176,241,14035,12495,24183,256
13.37.20.704024,8183,13160,13829,13008,19373,5381,186,14525,12390,15165,24183,24186
13.37.20.739467,12221,12499,19314,12080,19412,4134,15239,187,18237,12638,249,24196
13.37.20.775829,12481,12907,17607,10273,19442,13698,21785,23619,4700,11720,12277,24188
13.37.20.814675,16627,10446,7241,12559,19536,24834,17689,254,14659,12515,24151,279
13.37.20.852795,6325,13409,13994,13140,19358,801,158,14546,12589,15254,8811,24219
13.37.20.890809,12604,12513,21565,11790,19422,7665,13736,3766,16858,11166,254,24182
13.37.20.926753,12169,13080,15365,10206,19459,13601,22496,23611,4746,11508,11540,24177
13.37.20.964219,17256,10440,3296,12249,19474,22936,184,285,13670,12949,24186,255
13.37.21.003804,7726,13254,13713,13335,19365,800,2062,15604,13997,14918,236,24184
13.37.21.042033,12641,12573,23391,10783,19404,13359,11853,23811,9831,8767,4369,24169
13.37.21.079938,17217,10806,2310,12464,19549,14654,23728,496,11856,13161,13095,279
13.37.21.117533,9929,12653,13261,12370,19465,23090,181,274,13708,13364,24171,5828
13.37.21.155224,11179,12797,15502,12447,19419,5475,16295,1713,17137,11126,250,24182
13.37.21.193164,12155,12973,15860,10352,19470,13620,22472,23641,4768,11294,12730,24179
13.37.21.230533,17457,10646,2029,12608,19552,13208,23730,439,12456,12880,4402,282
13.37.21.266458,12768,11101,10544,12438,19541,24803,203,240,14186,12214,24178,258
13.37.21.303799,7690,13271,13880,12800,19372,8251,182,15571,12374,15375,23719,24196
13.37.21.339634,12331,12587,17203,12631,19403,1555,13249,184,18382,13408,250,24185
13.37.21.376550,12220,12925,14256,10305,19461,13728,11225,23739,8926,9230,6199,24177
13.37.21.414091,17341,10560,2639,12573,19548,18629,23737,252,14570,12823,24152,280
13.37.21.452010,7028,13351,14015,12245,19383,4570,177,14580,12652,15220,11919,24199
13.37.21.490752,12684,12459,23186,10886,19416,13455,11001,23806,10299,9004,3342,24175
13.37.21.528973,14966,11126,5708,11634,19506,11978,23812,14670,8011,12721,8938,5750
13.37.21.565202,15370,10529,8425,12472,19553,24844,12771,250,14723,12369,24169,272
13.37.21.602801,6345,13368,14045,12703,19381,3740,183,14457,12487,15472,22462,24197
13.37.21.640207,12583,12536,22545,11474,19416,12672,13420,23981,14254,10697,247,24173
13.37.21.676889,12116,13007,14743,10462,19471,13698,17993,23657,5788,10985,9943,24177
13.37.21.713540,17478,10543,2940,12604,19547,24830,20316,254,14654,12484,24166,282
13.37.21.752336,6581,13292,14072,12422,19381,8017,184,11317,12543,15210,23630,24206
13.37.21.789551,12310,12644,17674,12500,19404,1660,13584,506,18068,11925,253,24182
13.37.21.826572,12220,13022,17349,10281,19459,13644,22953,23656,4908,10779,10728,24172
13.37.21.863614,17405,10594,2042,12531,19560,21435,23727,252,14608,12766,24154,282
13.37.21.901770,7567,13026,14005,12268,19391,9758,186,11438,12597,15321,24182,24205
13.37.21.939660,12329,12499,21663,11625,19421,11072,15626,20493,14122,10374,245,24176
13.37.21.977320,12024,12779,14624,10385,19467,13183,23975,23623,4439,11342,12649,24182
13.37.22.014724,16366,10427,7701,12501,19542,24838,14634,252,14649,12630,24164,276
13.37.22.052875,6390,13324,13836,13159,19358,819,169,23958,14605,10986,247,24179
13.37.22.094159,12153,12772,14173,10420,19472,13643,22291,23628,4635,11809,12473,24185
13.37.22.131147,16845,10443,4673,12536,19545,24836,17844,253,14654,12699,24167,276
13.37.22.169235,6412,13129,13606,13416,19365,806,833,16276,13498,14757,6047,24198
13.37.22.207635,12704,12454,22694,11718,19429,11779,14325,23989,10970,9093,1099,24172
13.37.22.245795,16267,11094,4626,11937,19518,12289,23895,23609,4645,12303,10780,16771
