14.14.59.409543,12747,12265,11372,9540,511,14266,12329,496,6907,14615,3659,18830
14.14.59.446249,15014,15933,10728,10499,7980,8332,11565,5321,2802,14303,12138,-1513
14.14.59.485588,9382,9819,13846,13273,24355,2103,13279,23905,13917,9784,21829,22038
14.14.59.523197,8773,10821,13068,15021,3790,24428,12484,8547,17380,7302,-1668,22051
14.14.59.561421,13592,13986,10587,9105,461,9923,12163,474,2291,15152,11134,-1824
14.14.59.598831,20504,15311,12021,12677,15480,1978,11480,24383,13825,10693,16351,-1757
14.14.59.636511,5747,9399,13600,13387,24378,20213,13751,13906,12846,8516,16261,22089
14.14.59.674735,11419,11786,13122,13096,491,20248,12329,4262,11668,11353,-917,21727
14.14.59.712807,14761,15517,10870,11725,8653,8775,11617,13218,6593,12052,12967,-1778
14.14.59.750510,16233,12202,13783,13231,23885,471,12737,24419,13939,9780,22163,21089
14.14.59.789535,8004,10711,13169,15523,24372,24403,13081,10127,14232,5553,6634,22122
14.14.59.825249,11902,11989,12576,11894,513,17831,12314,992,9339,12673,3446,13297
14.14.59.863457,16696,15884,10681,10858,6302,8842,12041,2198,3039,14309,12105,-1843
14.14.59.899742,18525,14562,13106,12898,17394,8764,13468,22289,13266,8602,19093,22085
14.14.59.939919,8937,11231,13064,15326,14669,24422,12571,9204,17820,6478,-1608,22154
14.14.59.976084,12596,12069,12327,11671,504,16806,12304,488,8922,13467,5720,14391
14.15.00.013290,16059,15583,10583,9450,1260,9740,12102,963,2605,14523,11848,-1926
14.15.00.050058,17407,13817,13593,13156,21038,490,11994,24280,14124,9974,22308,-1011
14.15.00.088221,4797,10235,13247,15479,22908,24419,12853,9187,17718,6385,-1667,22102
14.15.00.126834,13036,12453,11322,9859,506,15121,12396,489,6958,14817,5529,17412
14.15.00.163204,15909,15704,10845,10324,3769,8876,12072,2508,2758,15136,11057,-1575
14.15.00.198176,20049,15975,11403,12349,13390,7221,11309,17039,6543,12351,12662,-1808
14.15.00.233414,17145,14265,13420,13063,19404,489,11846,24200,14205,10246,22075,-1843
14.15.00.271055,4547,9894,13262,14611,24370,24402,13498,10949,13675,6142,8103,22227
14.15.00.308119,11462,11544,13045,13437,486,22517,12439,3984,14412,8211,-1585,22184
14.15.00.343915,13120,12433,11615,9830,483,12068,12319,493,5649,15392,9397,600
14.15.00.381392,19113,15735,11892,12591,16612,1596,11405,24314,12401,11318,13432,-1856
14.15.00.419234,8867,9973,13597,13159,24362,9916,13589,14586,12974,8873,17656,22084
14.15.00.456753,9569,10945,13062,14926,14563,24410,12641,8971,17381,7286,-1641,22090
14.15.00.497498,18614,15850,11621,12345,15336,1918,11351,24090,13497,10886,14105,-1754
14.15.00.535824,8980,10034,13472,13198,24342,471,12522,23828,13948,10326,22152,-1901
14.15.00.570916,5135,10000,13383,13809,24361,24277,13574,11559,12994,6682,5724,22123
14.15.00.610692,13198,12539,11389,9715,483,12920,12354,486,6998,14774,9458,4290
14.15.00.647073,17094,15584,11237,10839,7825,9133,11551,4070,4802,13373,12659,-1868
14.15.00.682938,17567,13187,13417,12946,18138,1253,11659,23377,13473,11338,13718,-1794
14.15.00.718877,10237,10810,13515,13133,23454,617,13534,23024,13654,10199,19902,-1826
14.15.00.754790,6040,10905,13079,13695,24368,20180,13782,12275,12411,7168,8397,22021
14.15.00.791790,11863,12220,12572,12585,468,17562,12185,1869,9994,10822,6198,19767
14.15.00.829634,14471,14261,11524,10437,5127,9936,11630,1121,4413,13671,11822,-1870
14.15.00.865757,17834,13622,12922,12680,15478,2898,11473,22740,12878,11484,12851,-1834
14.15.00.902055,10916,11286,13348,13103,24353,10576,14041,19529,13184,9775,17286,18714
14.15.00.939526,8994,11462,12893,14772,21984,24406,12713,7968,15208,6152,-1742,22080
14.15.00.975747,12305,12237,12151,12206,473,18566,12215,733,10582,11570,1003,17970
14.15.01.013000,14862,15512,11425,11608,10290,8959,10859,7910,6193,12761,13571,-1832
14.15.01.050999,14358,11448,13628,13123,21815,480,12868,22153,13772,9884,22299,-1544
14.15.01.088130,5944,11000,13095,14485,24365,24398,13022,9659,13303,6139,1115,22121
14.15.01.126283,12651,12340,11757,11199,485,16275,12289,453,8931,13637,6955,15914
14.15.01.162611,14004,14361,11250,10349,5851,9306,11185,6180,5795,12938,12857,-1867
14.15.01.200163,16061,13161,13383,12898,17442,882,11797,22479,13833,10588,20379,-1817
14.15.01.236367,7750,10285,13500,13137,24357,6133,13926,21548,13112,9190,20731,22109
14.15.01.272478,7885,10879,12897,14893,15591,24414,12728,8863,15434,5689,-1301,22161
14.15.01.309522,12591,12289,11611,10783,483,15709,12297,473,8343,13803,8139,15309
14.15.01.346536,15171,15352,11735,11471,11948,7836,11159,16078,7169,13300,12796,-1802
14.15.01.383257,16935,14236,13395,12907,18049,474,11663,22518,14024,10479,18449,-1826
14.15.01.419568,7924,9755,13480,13181,24369,14130,13567,13213,12959,9229,13868,22049
14.15.01.457077,10061,11380,12927,14779,464,21875,12453,3750,14362,7990,-1003,22048
14.15.01.494573,13296,12309,11036,9455,459,11806,12271,485,5002,15436,10264,1676
14.15.01.531258,18657,15586,12073,12104,13964,4821,11158,22673,12381,11567,13182,-1814
14.15.01.569184,9442,9914,13527,13141,24358,8497,13439,21621,13518,9999,21728,21865
14.15.01.605957,8362,10944,12956,15115,19980,24409,12846,7901,16525,6541,-1702,22075
14.15.01.644247,13190,12805,10981,9369,524,10161,11794,495,3434,14525,13040,-1529
14.15.01.682524,18376,14673,13071,13014,17748,474,11529,22412,13826,10531,21472,-1914
14.15.01.720224,6213,9892,13540,13166,24379,11564,14316,13987,13097,8584,16886,22058
14.15.01.756406,9082,11203,13128,14913,5705,24410,12281,7783,16897,6969,-1686,22080
14.15.01.793823,13150,12375,12171,10661,480,13502,12218,487,7353,13950,7686,504
14.15.01.830330,16512,15418,10522,10819,8340,9023,10202,5054,5301,13241,15053,-1845
14.15.01.867180,14865,11692,13384,13088,24292,591,13789,22092,13272,9793,22304,4813
14.15.01.905012,7266,10788,13260,14277,24363,24412,13280,8890,14057,5611,-1596,22163
14.15.01.943025,12831,12520,12405,10879,520,15112,11563,511,6589,16402,8927,-310
14.15.01.981270,17457,14559,11833,12756,22852,1649,11279,22150,13338,10540,22464,-1167
14.15.02.021291,7471,10896,13184,14154,24376,21615,13985,9934,12756,5363,-1666,22222
14.15.02.058842,12379,12212,13162,12479,503,22608,11583,8201,13083,10937,-1549,22183
14.15.02.094473,13278,12817,11712,10103,497,10622,11115,1112,5296,15758,5863,-1069
14.15.02.131692,16943,14367,11588,12389,416,9479,9023,18160,8918,12100,20890,-1783
14.15.02.167265,13930,12864,13002,13093,22793,520,12865,21389,13616,9606,22262,-1811
14.15.02.204307,7673,11048,13193,13976,24391,23924,12882,7907,13409,5296,-1705,22113
14.15.02.242326,12580,12280,12896,11897,511,17382,11945,6887,9860,12510,-1532,22160
14.15.02.278085,13319,13676,11560,10019,504,11371,11472,521,5016,14720,-1778,-1895
14.15.02.316367,15531,13299,13203,13150,11288,537,12860,22201,13625,10102,22434,-1662
14.15.02.353442,8006,10666,13388,14553,24421,526,13038,17722,13714,5323,19980,22211
14.15.02.391264,11891,11911,13393,12773,5898,518,11972,17751,12559,11589,-1584,22129
14.15.02.428351,13365,13592,11205,10470,508,3799,10778,555,5262,14513,-1586,-1754
14.15.02.466036,16250,14195,12817,12904,456,24433,11422,523,13607,9631,22391,-1688
14.15.02.503693,7690,10677,12614,13622,24434,14964,13999,17065,12719,5432,12001,22128
14.15.02.541245,11880,11852,12913,13075,16317,533,12496,12436,14404,9144,-1556,22243
14.15.02.576924,13029,12302,11352,10286,532,474,12069,569,7955,16024,-1510,15927
14.15.02.612443,13604,13478,11021,10486,487,10333,10401,534,6654,12437,22200,-1752
14.15.02.651203,13022,12934,13670,13164,17417,24451,13161,22349,13536,9461,22378,-1725
14.15.02.687042,7881,10661,13226,13109,24424,21962,14355,18178,12577,6210,22234,22093
14.15.02.724491,11804,11739,12967,13203,24373,530,12264,18855,14513,9939,-1552,22145
14.15.02.761242,13285,12687,11179,9702,531,454,11908,559,5672,16817,-1636,2473
14.15.02.797524,16394,14712,11923,12549,445,22267,9775,5533,7742,12765,12059,-1722
14.15.02.833182,15367,14096,13416,13072,497,24439,12219,22330,13638,9837,22330,-1779
14.15.02.870671,7813,10847,13179,13331,24429,16783,15422,18434,12383,5156,20381,22087
14.15.02.907828,11838,11894,12636,13641,24360,531,12453,9054,14580,9564,-1627,22131
14.15.02.944109,13088,12682,11101,9947,523,448,11904,549,5937,17023,-1398,651
14.15.02.982290,16477,14178,13444,12788,435,24423,10097,18284,12646,11131,22334,-1668
14.15.03.018588,11242,10909,13272,13091,24402,24434,16111,21205,12980,7642,22304,22035
14.15.03.057193,11199,11718,12657,14051,17689,501,12158,7306,12780,11353,-1588,22161
14.15.03.094070,13162,12338,11004,10209,521,4365,11908,543,6034,16967,-1741,1132
14.15.03.131755,16971,14420,13409,12853,420,24445,11378,22307,13206,10408,22255,-1670
14.15.03.169019,10544,10982,13488,13130,24406,22610,15714,20310,12635,5988,22333,22163
14.15.03.206709,10746,11429,12819,13947,24348,503,12275,8831,15455,8866,-1637,22144
14.15.03.244215,13158,12364,10959,10556,527,5469,11778,545,6922,16987,-1762,2886
14.15.03.281260,16731,14602,12638,12595,438,18700,10051,19282,12709,10307,22186,-1794
14.15.03.318854,10972,11605,13545,13207,24402,24328,16354,21313,12873,7572,22262,22105
14.15.03.357246,11340,11689,11220,9968,503,9437,11724,539,5676,16355,-1656,2842
14.15.03.398313,16771,14565,12520,12860,430,23665,11235,22250,13406,9927,22263,-1727
14.15.03.436685,8584,10723,13379,13095,24403,15060,16534,19700,12749,6888,22262,22165
14.15.03.475412,12353,11994,12728,12622,8625,486,12145,3739,11299,13125,-1605,18769
14.15.03.512408,13436,13490,11181,9895,483,15466,10325,518,5078,14713,-1549,-1142
14.15.03.549434,15973,14765,13357,13040,1111,24454,12146,22234,13394,9611,22268,-1793
14.15.03.587648,7944,10656,12991,13500,24403,3548,15262,15396,12410,6008,22244,22070
14.15.03.624839,12019,11754,12321,13404,24354,498,12300,9020,15766,8301,-1649,22092
14.15.03.660755,13184,11974,11544,9500,501,19275,10970,517,4650,15027,25,-1071
14.15.03.699026,16566,14775,13423,13048,2046,24460,11692,6260,13730,9676,22252,-1821
14.15.03.737185,7777,10532,12857,13699,24413,10769,16330,8651,12809,5655,22297,22074
14.15.03.774320,11646,11728,12109,12862,10877,5414,11685,21741,10958,12083,-1640,19822
14.15.03.812247,13397,13703,11666,9796,492,14306,10510,22102,3724,14566,-1663,1361
14.15.03.848025,17106,15147,12513,12188,468,15381,8061,7780,7724,13004,-1657,-1752
14.15.03.884464,13187,12941,13431,13175,9152,24478,15281,534,13976,9798,22316,20776
14.15.03.922166,8766,10893,13219,14747,24407,587,14758,14390,12791,5902,14550,22110
14.15.03.957988,11709,11820,12465,12680,10582,2332,12257,19844,14593,10433,-1706,21361
14.15.03.995352,13251,13558,11807,10232,476,13934,9591,13516,3217,14348,17839,-794
14.15.04.032309,17020,14983,13500,12841,435,19501,8940,484,10407,11584,22255,-1673
14.15.04.067549,13719,13116,12942,13294,15586,24455,14337,10341,14157,9653,22303,2931
14.15.04.105187,8150,10526,12363,15121,24379,493,14701,16509,13976,5553,4056,22208
14.15.04.141898,12092,11954,12425,11409,525,6018,11537,21414,7732,15673,-1667,7706
14.15.04.180542,16439,15286,11703,11174,465,21379,7868,482,8321,11472,-673,-1680
14.15.04.217238,14840,13618,13147,13381,19196,24466,15147,19429,14322,9692,22399,-1680
14.15.04.254834,6773,10360,13121,15224,24391,484,14836,16154,13532,5455,10756,22024
14.15.04.292671,12442,12082,12937,12065,2851,6725,11564,18466,9953,13526,-1657,11563
14.15.04.329926,14729,15522,11168,11612,442,16701,7854,480,9984,11559,633,-1748
14.15.04.367538,14414,12479,13019,13207,11833,24466,12069,4966,14349,9827,22278,8213
14.15.04.405234,6101,10709,13257,15068,24379,24417,14675,15775,12571,5249,22180,22025
14.15.04.442085,12012,12126,13029,11564,546,16176,11904,21550,8812,14448,-1590,11345
14.15.04.480487,17249,15821,12187,12280,454,11300,9140,3406,11630,11569,11959,-1654
14.15.04.518217,12868,11238,13349,13365,24390,24445,11498,7794,14002,9695,22446,-1689
14.15.04.554531,4129,10073,13515,13778,24445,16439,11817,21143,13504,5224,9702,22117
14.15.04.591706,11597,11771,13369,13780,6173,520,15970,19152,11943,11651,-1641,22118
14.15.04.629053,14029,14319,11261,9578,512,7617,24328,558,3379,14045,-1612,-1771
14.15.04.666681,17915,14017,12509,13251,3015,24485,1013,22307,14273,9795,22444,-1678
14.15.04.704271,3693,10111,13415,13750,24431,24113,2577,21682,12816,6613,22402,14862
14.15.04.740172,9279,11432,13234,13055,690,494,16573,542,11035,11943,-1632,-1896
14.15.04.779460,14655,15385,11307,10982,456,20991,22361,2198,6697,12358,22125,-1796
14.15.04.818183,13222,11419,13441,13205,24423,23803,921,21544,13471,9247,22370,22060
14.15.04.856720,9280,11202,12838,14848,22340,529,17843,7413,16680,8782,-1669,17886
14.15.04.895086,13726,13970,11927,8759,518,4741,17217,563,2575,15104,-1704,4985
14.15.04.931600,19110,15227,12730,12300,3648,20455,21429,5804,9828,11642,19406,-1768
14.15.04.968103,13333,11162,12829,13136,24338,24455,474,21877,13920,9573,22404,22163
14.15.05.005592,7840,11029,13011,15385,24381,508,15464,9964,17663,7569,-1569,22194
14.15.05.044238,13249,12462,11650,9566,511,9520,14873,549,4767,16723,-1659,3745
14.15.05.080567,16702,15260,12379,11986,437,14575,15056,14363,10129,12094,19797,-1707
14.15.05.117003,16392,13522,12977,13158,11867,22781,7265,22118,14155,9528,22264,-337
14.15.05.154598,5777,10153,12808,14004,24405,10776,10535,20229,13024,6422,22259,22073
14.15.05.190699,10659,11707,12796,14300,20584,496,15963,430,14823,9140,-1468,13181
14.15.05.229399,14795,15838,8943,10342,500,16784,21882,21670,2697,14140,-1643,-1174
14.15.05.266801,17773,13184,12228,13150,9979,24491,6225,544,14530,10477,22292,-1736
14.15.05.303550,985,9464,14472,13727,24459,1027,2491,474,12713,6452,22405,16805
14.15.05.343969,14520,13086,19736,9403,518,16566,17097,21650,2448,15514,-1696,1267
14.15.05.381816,24504,15818,584,12746,447,23070,18483,1319,11542,11209,21679,-1707
14.15.05.418144,13208,10043,13807,13340,24434,18417,517,479,13863,9161,22410,22162
14.15.05.456297,5888,10706,14272,15469,24372,516,14082,21745,14630,5297,4651,21877
14.15.05.492770,12820,12207,19213,10802,525,9061,15509,15334,9228,13473,-1697,2572
14.15.05.529467,15034,16093,8036,10919,432,15837,20635,1701,8521,11917,12292,-1865
14.15.05.568406,11635,10438,13039,13377,24322,22496,4867,18891,14369,9606,22248,21978
14.15.05.605236,3860,10707,13863,14987,24369,6721,13257,13866,13920,5273,17017,22081
14.15.05.641687,11445,11726,16887,12988,1235,9514,15519,8187,12461,11996,-1658,4245
14.15.05.678924,13911,14525,12168,8903,475,13278,17383,491,2592,13987,406,-330
14.15.05.715380,21162,15489,7905,12570,426,13632,16053,13439,11917,11153,20085,-1812
14.15.05.752422,9296,9726,13453,13305,24403,13753,2109,2935,13464,7854,22315,22140
14.15.05.789671,7985,10576,13617,15501,24363,7265,14369,17333,14518,5045,13682,22110
14.15.05.825704,12395,12166,16955,9859,512,12403,15736,22992,8298,14781,-1702,342
14.15.05.863700,18469,16140,5984,12511,441,19028,15074,509,12569,11489,19115,-1681
14.15.05.900976,16313,11967,11290,13239,3101,24487,3669,513,14403,9641,22339,12640
14.15.05.937615,738,9810,14241,13317,24432,9525,3141,12241,13248,7051,22288,22054
14.15.05.973434,7804,10941,14105,14983,24199,501,15203,22247,17642,6581,-1629,22152
14.15.06.009124,12024,11885,17043,13071,8681,8770,15958,12063,12055,10591,-1604,6095
14.15.06.045180,13933,13812,12895,8870,499,11137,15405,1252,5610,16693,-1770,1204
14.15.06.080945,20549,15933,8560,10905,444,12269,21273,3020,6036,12382,14369,-1876
14.15.06.117985,15367,10616,12958,13336,24377,13770,1584,22073,13629,7782,22321,22100
14.15.06.156590,7317,11042,13676,15026,24372,11633,15403,10312,18057,7621,-1609,19682
14.15.06.194141,13288,12928,14440,10141,510,11685,15960,8991,10254,14498,-1686,3358
14.15.06.229548,14943,15689,11252,9047,472,13849,20031,743,2364,15334,-767,-1376
14.15.06.266556,20703,13961,8945,13084,1324,19897,5971,529,14428,9841,22301,8698
14.15.06.304590,569,9948,14019,14466,24410,509,11564,458,15251,5112,7648,22186
14.15.06.342072,11370,11871,20462,13701,5423,509,16639,21934,14593,9970,-1635,11643
14.15.06.378178,14513,14235,15841,9028,536,15836,16129,21440,3820,16770,-1710,1704
14.15.06.414879,24497,15392,588,12541,459,23132,21905,6804,10283,11639,22260,-1664
14.15.06.452428,7460,9562,12739,13339,24432,22526,512,513,14000,9211,22310,22029
14.15.06.489683,2960,10695,15137,15315,24381,534,15060,17702,16722,5834,-1683,20717
14.15.06.527216,13381,12917,15543,8852,504,16981,16695,22071,4563,16787,-1701,1369
14.15.06.564720,23800,15277,8316,13219,8363,24470,11580,5312,13174,10837,22025,-1880
14.15.06.603028,4765,9697,13181,13279,24391,12109,496,5744,13491,9182,22338,22047
14.15.06.639266,4023,10516,13939,15615,24336,1289,15463,14236,17119,6245,-1677,19923
14.15.06.677194,13598,13383,13563,9048,479,14153,15615,23020,4798,16728,-116,2920
14.15.06.713997,19627,15839,7622,11136,425,15228,22808,10689,3748,14566,12108,-955
14.15.06.749933,20766,14386,9200,13067,7630,21260,4136,618,14278,9623,22341,21540
14.15.06.788724,2943,10608,13871,15480,24348,603,14554,14950,17827,5972,-1566,22232
14.15.06.826353,12542,12230,17851,10356,512,13896,15626,22564,6071,16442,-1752,1720
14.15.06.864736,23978,15832,5221,12297,434,21764,12130,527,14447,9985,22388,884
14.15.06.904487,561,10012,14066,13535,24429,5315,4507,8267,13191,7145,22251,22105
14.15.06.940717,7641,11234,14603,15576,24346,1676,15262,16793,17932,6755,-1580,21856
14.15.06.976962,13281,12747,16307,9684,517,13577,16275,22162,4360,16645,-1723,1545
14.15.07.014127,22545,15956,4750,11520,441,16970,21640,1698,10168,12406,20009,-1710
14.15.07.051246,16490,11603,10037,13308,22273,23601,1326,514,14269,9480,22319,22070
14.15.07.088964,633,10685,14521,15675,24353,503,15840,17328,14555,9568,-1575,6603
14.15.07.128596,14745,14550,14462,9027,491,14486,15940,22210,4460,16658,243,712
14.15.07.164814,24459,15769,2988,12645,436,17409,19300,528,11335,11250,20293,-1778
14.15.07.202505,8102,9073,13824,13249,24429,11421,1794,5091,13282,7332,22280,22073
14.15.07.239997,3661,10916,14534,15793,24360,504,13371,13554,13628,4857,-1674,22111
14.15.07.276434,12372,12263,20939,11098,519,12381,16342,22522,8318,14647,-1707,2369
14.15.07.313412,18033,16513,3863,11058,441,15565,24137,10848,6232,11718,17722,-1723
14.15.07.351757,13756,10084,12244,13257,21014,18945,496,473,14047,9503,22337,22036
14.15.07.389482,1707,10746,14703,15291,24346,882,14283,15314,17299,6186,-1644,22142
14.15.07.426140,12392,12265,21226,12136,525,8707,16178,22291,13684,10836,-1627,11807
14.15.07.461533,14404,13660,14351,8912,495,14498,16153,22257,4599,16724,3303,1427
14.15.07.498553,24456,15789,2891,12621,10627,22615,5846,515,14373,9784,22382,5506
14.15.07.537698,547,9663,14230,13527,24404,8916,2424,10054,13057,5915,13882,22153
14.15.07.574518,9366,11599,15810,14834,21246,5937,16058,14952,17150,8714,-1615,15926
14.15.07.610971,13650,12955,15193,8866,463,14756,17240,21934,2864,16462,9065,1687
14.15.07.649098,24362,15221,5412,12583,412,16390,17368,1325,12267,11162,18328,-1810
14.15.07.685823,9152,9683,12963,13271,24353,15296,1774,9848,14301,9696,22357,3997
14.15.07.720904,1016,9798,13808,13003,24387,10614,4968,12350,12705,7068,18446,22079
14.15.07.757102,8059,11392,14260,15320,24339,8590,15576,12058,16239,9645,-1551,11971
14.15.07.794778,13686,13566,14333,9102,481,13243,15210,16234,4611,16549,316,3412
14.15.07.830707,18859,15631,7352,11829,419,14326,19803,1812,10237,11042,21061,-1728
14.15.07.868487,13777,11251,11728,13280,23749,15400,586,3988,13964,9488,22237,22065
14.15.07.906816,7013,11291,14380,15334,24329,6334,15049,15648,17986,7281,-1619,18353
14.15.07.944374,13693,13162,13985,8813,469,13888,16526,22177,4933,16666,9922,2865
14.15.07.981680,24115,15123,6606,13075,652,18183,13042,502,13836,10446,21711,-1805
14.15.08.020251,2433,9713,13794,13323,24405,8251,2991,11926,13266,7411,20540,22056
14.15.08.057435,8267,11297,15077,15080,24334,5811,14941,14568,17385,6174,-1645,22151
14.15.08.092506,11812,12079,19034,12683,496,11949,16230,22186,11034,11477,-1573,9268
14.15.08.128426,14149,14296,12791,8720,458,14067,19577,21237,2066,15442,13315,-154
14.15.08.166405,23074,14616,7432,13060,1823,17641,10561,491,14284,10389,21870,-1713
14.15.08.202890,6431,9790,13742,13275,24389,11344,1033,11641,13339,7182,19453,22160
14.15.08.240265,6812,11133,14267,15486,24337,7000,15634,14436,17389,7283,-1583,15991
14.15.08.277521,13484,12428,16113,9308,465,13788,15848,22154,2585,14574,13436,707
14.15.08.315729,24446,15239,5037,12523,422,16430,16961,473,11204,11849,17290,-1815
14.15.08.352141,12125,11047,11986,13299,24341,13732,474,2994,13998,9463,22360,22065
14.15.08.389751,4400,10738,14142,15437,24334,6416,15294,14795,18105,7281,-1552,21244
14.15.08.426913,12781,12343,17117,10388,507,13266,15660,22084,7022,16276,799,3201
14.15.08.464189,20396,15856,7473,10935,434,14346,23074,5677,7136,12972,15355,-1429
14.15.08.499647,23635,14823,6029,12744,455,18316,9649,508,13841,10656,20403,-1664
14.15.08.535544,11867,10471,13099,13242,24396,13560,493,2622,13743,8658,22266,22082
14.15.08.573658,6748,11065,14431,15065,24342,7206,15279,15991,17509,7828,-1669,18568
14.15.08.611131,13562,12603,15846,9073,462,14085,18162,21508,2758,16182,8930,2369
14.15.08.648419,23836,15567,5624,11871,425,14827,17953,473,11482,11107,16084,-1743
14.15.08.685338,13146,11780,12408,13249,24351,13330,476,7597,13807,9158,22302,22042
14.15.08.723407,6117,11161,14180,15522,24331,6688,15245,13809,17671,7403,-1680,19513
14.15.08.760495,12994,12203,17128,10006,490,13491,15130,21742,5942,16551,8538,2469
14.15.08.798614,23740,15445,5424,12265,413,15918,15337,478,11930,11165,16553,-1847
14.15.08.836618,4262,9761,13528,13338,24427,12164,760,12301,13610,8565,20829,22111
14.15.08.873660,6841,11166,14105,15574,24336,5896,14391,15135,17693,7637,-1671,19291
14.15.08.910909,13286,12719,14281,8844,463,14096,15881,24131,3707,16787,9968,2876
14.15.08.947955,21810,15716,6695,10722,427,14155,22966,12956,3810,13491,14326,-1767
14.15.08.984326,18141,12867,10130,13102,15919,17009,3236,1248,14142,10028,22380,6161
14.15.09.021745,733,10078,13995,14572,24356,6433,10406,14368,13712,4982,-684,22163
14.15.09.059108,11517,11935,18620,11660,504,12950,15957,24297,9675,13477,360,7699
14.15.09.096102,14375,14375,12388,8899,467,13725,15166,24185,5157,16584,9802,3286
14.15.09.131660,22902,15559,5549,12536,417,16310,13746,472,13381,10387,19936,-1753
14.15.09.169680,7611,9901,13303,13250,24382,11539,593,12347,13436,8802,20854,22145
14.15.09.206123,3312,10712,14108,15084,24345,5915,11888,14423,14606,5156,2159,22134
14.15.09.242483,11416,11883,18980,11817,503,13167,16107,23853,11078,11553,-1561,11709
14.15.09.278558,13871,13263,14015,8923,470,13912,15702,24186,5226,16608,10507,2402
14.15.09.315757,24409,15154,4700,12369,416,17442,16036,479,12621,10969,16707,-1865
14.15.09.353231,6275,9969,13600,13199,24397,8208,3868,13587,13373,8029,13398,22097
14.15.09.390923,8276,11370,15551,14981,24348,3896,14747,15155,17480,6320,-1695,22073
14.15.09.427016,12892,12286,19184,11570,500,11825,15369,23846,9656,12832,433,7849
14.15.09.462948,14602,15062,8362,9742,448,14811,21628,18865,2460,14664,13139,-81
14.15.09.500053,22153,13398,9737,13020,417,22076,7554,494,13813,10901,16762,-1822
14.15.09.536842,4934,10115,13435,13182,24368,12968,636,10275,13498,8236,16915,22034
14.15.09.574044,7913,11109,14962,14682,24368,3385,15780,16640,17852,7128,-1591,19202
14.15.09.611078,13450,12139,17655,10391,509,13430,16041,24139,9681,12504,-1596,8751
14.15.09.645483,14069,12598,12674,8942,470,15239,18302,23753,2629,16180,9969,2978
14.15.09.682475,24339,15366,2110,12585,426,21235,13437,516,13622,10446,20215,-1677
14.15.09.719766,7044,10282,13143,13268,24398,10394,680,1851,13466,7483,16755,22106
14.15.09.758081,9297,11437,16287,15050,24366,4219,15442,19302,18087,7286,-1579,19719
14.15.09.793995,13040,12140,19254,10776,513,14059,15416,23847,6711,16369,4055,3242
14.15.09.830808,19373,15780,4214,10708,448,15514,22187,23677,2069,14893,13687,-1856
14.15.09.867440,20044,13276,8004,13132,3686,23179,8914,519,14277,10112,22277,532
14.15.09.904692,685,10042,14411,14091,24397,3387,6876,14294,13925,5219,-58,22214
14.15.09.942290,11053,12090,20742,12192,572,11494,15446,21728,12271,12222,1113,4347
14.15.09.980552,17747,15901,7879,9333,453,15337,21121,23933,3419,15988,12325,261
14.15.10.015957,24442,14853,4059,12740,436,18767,16430,1857,10191,12615,14366,-1668
14.15.10.051249,18657,12003,9635,13155,3517,22122,8318,513,13958,10153,20551,-1849
14.15.10.087629,1121,9723,14046,13287,24401,8864,1612,10217,13176,7059,18967,22112
14.15.10.123640,5787,10621,14510,15325,24354,5191,15802,15271,16280,9193,-1632,12319
14.15.10.161747,13862,12543,15807,9202,489,14508,15472,23987,3275,16626,11351,1520
14.15.10.199163,24446,15033,3224,12606,416,19078,16356,490,12485,11111,15277,-1772
14.15.10.236603,5852,9895,14128,13314,24411,10679,602,9213,13521,8842,14948,22119
14.15.10.273907,7434,11389,14494,15197,24347,5005,15298,16085,15981,8059,-1462,16370
14.15.10.311082,13373,12026,17130,9152,486,14103,15463,24181,5750,17289,9152,2736
14.15.10.347684,20055,15524,2574,11558,430,16124,19601,6697,7711,11485,13789,-1683
14.15.10.384959,16481,12917,10936,13167,22468,18227,736,9345,13410,8339,19181,22083
14.15.10.424232,7579,11256,17930,14089,24362,6109,16017,14813,16084,9143,-1291,10965
14.15.10.462456,14054,13690,10298,9666,442,15307,21961,22086,1923,15686,12767,-1857
14.15.10.500273,22269,14824,5309,12771,414,20775,11708,482,13728,10842,14629,-1734
14.15.10.536053,10214,11442,13049,13244,24393,10881,485,8651,13886,8966,18326,22016
14.15.10.573160,3461,10846,14682,14800,24347,4829,15643,14139,18427,6040,-1562,22214
14.15.10.610391,12692,12035,18171,10513,495,14046,15471,24195,3982,17658,11381,3742
14.15.10.647966,21579,15576,4334,11550,429,15415,21366,5334,8864,11797,13383,-1750
14.15.10.684733,18030,13351,11155,13220,15084,20504,2072,959,14421,9776,22343,2271
14.15.10.721078,887,9820,14128,13534,24390,8374,1033,9272,13563,7419,14611,22080
14.15.10.757496,7105,11234,15798,14369,24247,5026,15427,15591,16784,10314,3087,10910
14.15.10.795888,14162,13926,13656,8568,478,14165,15636,24149,6859,16373,10611,4302
14.15.10.830411,16980,15818,5316,10377,443,15186,20721,23861,1117,16101,12692,2165
14.15.10.865573,24439,15479,3323,12027,427,15103,22452,4437,4965,13795,13342,-1818
14.15.10.901239,19513,11557,11645,13351,24341,15813,492,934,14369,9341,19732,22071
14.15.10.940028,3845,10812,14375,15790,24346,502,13905,17745,17476,5001,-1678,22111
14.15.10.976840,12269,12076,19780,11660,527,12757,16153,24205,9442,14045,-1669,2993
14.15.11.013970,17690,15918,7413,9827,458,13658,19332,23609,556,15724,-1615,-154
14.15.11.049786,24175,15048,5029,12777,451,24415,13940,514,11664,11475,20418,-1654
14.15.11.086243,9402,10011,13169,13285,24454,24435,648,493,13914,8076,22349,22111
14.15.11.124368,7945,11180,15486,14359,19101,533,15755,18800,19315,7419,-1558,21637
14.15.11.161167,13308,12825,16863,10062,558,468,15783,23947,6224,17078,-1679,865
14.15.11.197504,18576,16242,8479,10242,455,23110,22791,20770,3509,13022,18223,-1741
14.15.11.234028,21275,13763,7144,13138,1441,24471,6708,554,14764,9975,22433,-1668
14.15.11.270179,5255,9541,13685,13312,24444,23424,713,999,13717,7349,-1632,22176
14.15.11.307715,7719,11250,15785,14004,19525,514,15514,21139,16997,7998,-1543,17443
14.15.11.345356,13815,13839,15624,8631,499,7434,15592,23831,6614,16169,15651,5164
14.15.11.379841,14851,15576,11642,8757,471,21088,23436,23419,2667,14777,20524,-1074
14.15.11.416126,24483,15524,3735,12622,429,24408,13723,532,13486,10670,19260,-1789
14.15.11.453632,4626,9439,13848,13323,24431,19224,1712,2450,13319,7303,2009,22102
14.15.11.490986,7389,11222,14614,13999,12741,513,15696,21434,14630,10975,4025,6222
14.15.11.529771,14590,15616,10840,9199,465,21907,22743,21363,4771,13712,17515,-1826
14.15.11.567618,20240,12893,9870,13351,24363,24445,1111,490,14223,9532,20729,22103
14.15.11.606316,2402,10543,14319,15514,24395,502,9680,11880,12981,4709,-1732,22082
14.15.11.642530,10928,12038,19498,11164,537,2958,15843,24252,9299,14725,17468,2219
14.15.11.680281,15723,15752,10147,8839,467,18481,20370,23833,1523,14421,15436,-1825
14.15.11.716710,23708,14583,5316,12975,7993,24420,11746,522,13929,10545,10815,-1815
14.15.11.753698,4805,9402,13592,13251,24420,12278,1982,6234,13393,6536,-1529,22212
14.15.11.791624,9172,11471,15687,14119,13034,503,15568,17037,18657,6935,5082,22150
14.15.11.827863,13184,12620,16889,8987,494,15796,15620,23937,3370,17279,17170,-1805
14.15.11.866151,24451,14871,4195,12956,9892,24429,10618,520,14660,10514,15277,-1702
14.15.11.903324,6975,9560,13407,13341,24412,11778,1159,7283,13399,7141,-1528,22165
14.15.11.940731,6360,10885,14812,15266,24371,509,15229,16363,19232,6983,-1603,22129
14.15.11.977720,13078,12531,17045,8858,498,12301,16273,23847,2001,17342,20408,-1806
14.15.12.015904,24482,15670,5881,12934,1015,24393,15588,588,12916,10851,19529,-1777
14.15.12.052392,13448,11701,12009,13543,24353,24440,500,490,14604,9549,22406,22027
14.15.12.089017,573,9509,14220,14194,24433,496,10416,10712,13191,6102,10326,22129
14.15.12.125462,10032,10934,18659,12808,534,473,15907,22717,10376,13763,-1643,7911
14.15.12.163139,14548,12362,10814,8786,458,21509,23107,23873,-423,16255,9008,-1788
14.15.12.200015,24411,16975,8757,13267,11792,24473,3662,527,15512,9882,22234,-1142
14.15.12.238256,570,8912,14115,13700,24440,2104,2434,9011,13426,4864,6717,22048
14.15.12.276011,10852,11782,20593,11126,554,478,16798,24239,10199,13824,-1679,7517
14.15.12.313614,16179,13421,9323,8774,479,16456,24450,23661,-624,14941,5634,-975
14.15.12.349735,24509,17651,3166,12943,1788,24416,19759,555,8199,11505,17950,-1790
14.15.12.386285,9646,11399,13046,13495,24429,24442,538,1192,14590,8333,15880,22060
14.15.12.423711,2290,9735,14452,16882,24395,554,11299,16140,20766,4665,-1599,22127
14.15.12.460252,11972,11547,20918,11510,551,451,17424,10777,9749,14089,22313,4918
14.15.12.496502,14946,15055,8700,7990,467,17583,24412,13796,-656,14394,17621,-1201
14.15.12.533228,24472,16827,5121,13123,21452,24416,18237,24078,14806,10634,562,-1845
14.15.12.570505,1902,8735,13721,13531,24438,17537,539,14090,14073,6134,-1613,22177
14.15.12.608790,8395,10851,17209,13958,526,495,17346,12375,12029,10714,22379,7649
14.15.12.646278,14548,14255,12077,7287,506,13779,17194,13284,-757,16021,18074,-1754
14.15.12.683095,24463,17177,3172,12886,6388,24410,16671,7271,15002,10528,2364,-1810
14.15.12.719989,6600,9135,13204,13539,24415,20485,531,13390,14430,8041,-1490,22223
14.15.12.757015,1796,9481,14345,16644,24363,541,9651,13293,14603,3649,-1668,22194
14.15.12.792029,8622,10684,17674,14326,10401,513,16783,13458,21993,8604,22332,19040
14.15.12.828703,13818,12316,13262,7335,506,12085,16613,20753,-657,17912,20780,-976
14.15.12.866115,24463,17702,4028,12893,10025,24196,22927,774,9832,11965,10499,-1751
14.15.12.902107,17085,12517,11908,13465,24400,24435,493,12163,15050,9096,-1647,22037
14.15.12.939906,1456,9423,14358,16543,24358,530,12789,14239,17044,4165,11875,22113
14.15.12.976236,11049,11173,20024,12096,538,1507,16756,19339,9854,12221,22463,6305
14.15.13.012890,14224,11841,11682,7889,478,15061,21310,15797,650,16844,22013,-484
14.15.13.048275,22242,17621,4086,12197,3518,22872,19093,788,12297,11062,4220,-1760
14.15.13.085494,15451,15273,11071,13394,24326,24455,1039,10525,14859,9474,-1661,11624
14.15.13.121777,589,8201,13995,13501,24410,10009,1419,13862,13642,7755,-1687,22100
14.15.13.157515,6587,9820,16305,14945,12842,497,16461,13576,16662,9475,22234,5474
14.15.13.196621,14500,13836,10041,8599,471,14449,22286,13147,650,15149,19129,-1905
14.15.13.233547,23120,15504,6440,13018,15783,23469,12714,15728,13625,10725,1428,-1868
14.15.13.270444,5902,9593,13524,13268,24406,8505,5718,11696,13082,5917,-1639,22172
14.15.13.307702,7952,11233,14504,14255,10213,501,14969,13346,18018,7671,22276,19848
14.15.13.345030,13414,13847,13322,8676,503,13880,15038,14280,1744,15429,17239,-1954
14.15.13.383923,20980,14208,8707,13148,23179,24444,7993,3443,14404,9811,-1607,14899
14.15.13.422190,1739,10040,13728,13571,24405,7992,5304,14373,12846,6066,-1646,22171
14.15.13.458788,10296,11720,16631,13962,498,985,15130,17330,13756,9702,22411,18737
14.15.13.495740,13790,14108,11998,8838,482,15897,18703,22087,2278,15891,21325,-1840
14.15.13.532652,22796,14538,6647,12933,17809,24435,10145,516,14326,9981,-1341,3675
14.15.13.572466,2402,10331,13986,14901,24355,487,12167,14668,14346,5044,-1165,22147
14.15.13.610047,12024,11999,18957,12098,516,9729,15354,24261,9218,13014,22315,7191
14.15.13.646822,14583,14561,8253,9809,461,17118,20619,19396,3723,13478,15407,-1827
14.15.13.684787,17820,13661,9605,13156,23359,24450,2246,2031,13953,9526,-1634,22027
14.15.13.723435,4842,10867,14097,15501,24367,503,13756,14201,16591,5271,7553,22127
14.15.13.759870,11765,12106,19394,12098,526,12218,15226,24197,7599,16156,22246,-1929
14.15.13.798813,21515,15183,4999,12461,6589,18600,13340,3822,11636,11421,6841,-1817
14.15.13.836342,11059,11682,12701,13213,24348,16572,1470,8848,13901,9583,-1625,22042
14.15.13.872970,3844,10997,14450,14613,22407,501,14235,12961,17569,6723,22195,21955
14.15.13.911835,13422,12313,13892,9072,464,14212,18226,14661,2790,14529,13849,-1902
14.15.13.951128,18736,14354,9253,13065,16980,24437,10595,9642,13358,10337,69,-1960
14.15.13.987560,5133,10231,13932,13411,24389,8479,4348,11928,12957,6315,-1739,22098
14.15.14.025781,10766,11812,18890,12509,509,7764,15568,16207,10982,12823,22231,5749
14.15.14.063528,14482,11136,14273,15403,23325,560,15441,13892,17493,6517,21344,22077
14.15.14.111199,13042,12023,18792,11079,527,9781,15546,23054,9508,14203,22251,3267
14.15.14.147439,15930,14942,4543,11129,419,16790,21485,19483,4865,13902,22213,-1753
14.15.14.184726,18817,14126,9468,13187,24007,24480,5476,550,14323,10393,22359,-1723
14.15.14.220568,5158,10122,13979,13387,24432,2248,2815,456,13487,7071,4175,22084
14.15.14.258606,9582,11646,18583,12958,566,9179,15612,23872,11595,10764,-1668,9141
14.15.14.296148,14165,13141,12578,9042,469,15767,16319,23427,5550,16941,3457,471
14.15.14.331740,20638,15411,2327,11883,1636,19580,19878,6728,7251,13376,21717,-1824
14.15.14.367599,20280,14137,9644,13218,20880,24474,4807,540,14205,10088,22310,-1775
14.15.14.404797,2601,10044,13914,13342,24416,4977,5555,938,13330,8597,6898,22043
14.15.14.441215,8128,11310,14755,13726,512,6968,16134,22878,13928,10194,465,8996
14.15.14.479810,14024,15480,3716,12439,1755,19338,16384,506,12940,11624,15467,-1672
14.15.14.519002,14683,12572,10870,13227,24318,24457,3188,513,14313,9807,22397,2763
14.15.14.555145,1631,10118,14308,14739,24374,501,13958,16994,15824,5298,-1601,22227
14.15.14.594325,12956,12010,19780,11199,536,10391,16183,24123,9421,12497,12080,22051
14.15.14.629695,14187,13369,12059,9050,468,17093,22529,23546,1923,15043,18687,-1858
14.15.14.667744,21195,13617,9723,13103,24168,24476,3454,537,14415,10162,22336,-1815
14.15.14.704552,1324,9888,13627,13289,24418,13930,503,477,13825,8909,14416,21776
14.15.14.739910,1411,10485,14467,15588,24352,512,14759,17705,17834,5923,-1675,22055
14.15.14.778084,13451,12291,17542,9501,521,13592,16326,23943,7551,14091,5902,5564
14.15.14.814469,18551,15190,7661,10143,453,16411,24423,20636,5548,12956,18534,-1812
14.15.14.852179,16467,12736,11280,13174,24325,24223,1109,509,14153,9672,21387,19981
14.15.14.889901,2036,10965,14394,15423,24352,511,13662,16719,17119,6138,-1517,22163
14.15.14.927620,12904,12187,21260,11775,520,12803,16071,23968,8107,14812,17242,5523
14.15.14.964244,16603,15617,7454,10963,448,16271,24415,23439,3381,15145,17275,-1847
14.15.15.000609,22634,14573,6805,13027,15194,24457,5280,515,14331,10418,18593,-1709
14.15.15.037882,1835,9928,14049,13293,24406,11377,498,1675,13399,8711,274,22002
14.15.15.074781,7665,11543,17398,13421,4453,1947,17025,18520,17395,9003,4939,20217
14.15.15.112027,13664,12800,15971,9818,513,13513,16340,23910,8235,15248,18825,425
14.15.15.148399,21062,15620,6259,11290,441,16060,24419,16329,5859,12773,15364,-1829
14.15.15.185161,18152,13365,10295,13188,18887,24266,932,514,14376,10243,19479,-1773
14.15.15.220827,4156,9971,13466,13153,24386,15587,505,467,13557,8319,-906,22155
14.15.15.257434,5783,11027,14318,15226,23665,1564,16610,21224,16749,8577,10231,17805
14.15.15.296301,14140,13377,14659,8936,478,15400,20547,23571,3596,16719,17166,-1964
14.15.15.333844,22536,14984,6915,12835,4152,23777,12516,514,14059,10567,13937,-1776
14.15.15.370522,6684,10209,13563,13257,24395,10072,496,2122,13208,7103,-1558,22182
14.15.15.407895,7320,11006,14637,14965,10610,6629,16554,22878,12601,11366,18718,6656
14.15.15.447491,15925,14896,9769,9440,469,15701,23344,23664,2171,16030,16975,-1356
14.15.15.483444,23945,15211,4896,12600,9444,22668,17129,493,9396,13037,13623,-1778
14.15.15.518669,17378,12692,10673,13115,14514,24392,3198,511,14403,9645,9732,6729
14.15.15.556209,1136,10459,14250,14965,24379,484,5981,12259,13397,4693,30,21991
14.15.15.593506,11927,12066,19552,11011,507,11115,16514,24125,8445,14713,19094,2148
14.15.15.631712,20365,15545,5599,11112,450,16008,24384,14452,5041,14090,13667,-1848
14.15.15.668299,18433,12835,10088,13100,12944,24441,8997,497,14188,10402,10671,-1864
14.15.15.704899,2673,10018,13721,13660,24380,1902,2812,10113,12966,5684,362,22015
14.15.15.742421,10533,11704,17533,13068,3963,3412,16318,19457,12210,12194,19607,6016
14.15.15.780953,15680,14795,8954,10480,430,15269,24391,20247,2466,14908,14093,-1850
14.15.15.817026,21940,14475,7973,13000,15254,24441,5388,496,14116,9997,8040,-1822
14.15.15.854759,3612,9998,13769,13214,24392,7346,547,7060,13508,8165,-120,22093
14.15.15.891273,8071,11113,13985,15399,24349,525,14066,15251,17170,5578,9664,22069
14.15.15.927099,11966,12134,18401,11742,510,11272,16537,24259,6277,15587,19475,1775
14.15.15.965182,19197,15243,5877,12427,1161,18290,17359,1260,12310,11233,11300,-1812
14.15.16.003686,8810,10237,13254,13180,24360,14690,499,7699,13845,9376,-1040,22027
14.15.16.040848,6911,11250,14059,15045,24334,886,14745,14934,17772,5878,9014,22179
14.15.16.077421,12350,12036,18290,11757,500,12283,16302,23745,8705,14908,19171,4029
14.15.16.116759,22058,15135,5960,12371,4323,19138,16033,465,13041,11008,10930,-1760
14.15.16.152894,12361,11644,12046,13247,24315,22238,556,598,13966,9589,2755,20502
14.15.16.189749,3015,10488,14078,14207,24374,2714,6307,12579,12914,4966,-1102,22089
14.15.16.226387,11300,11823,19572,12962,561,4901,16299,17131,15907,9422,-1647,14778
14.15.16.262771,13978,13767,12838,8815,480,21892,18304,23761,2492,15540,1065,-1664
14.15.16.300453,20975,14183,4348,12834,439,24276,16706,513,12913,10524,22206,-1699
14.15.16.336986,8772,10294,13657,13220,24425,24470,521,2642,13387,7691,22253,22095
14.15.16.375100,9698,11577,20234,13614,11939,980,15799,22662,14924,10783,-1568,17962
14.15.16.413110,13702,13773,13817,8987,491,13692,15434,23739,2887,16142,12976,-1916
14.15.16.450901,18937,13928,6248,12891,442,24359,14604,512,14071,10661,22285,-1837
14.15.16.488416,4541,10295,14546,14337,24392,7544,3972,13696,12691,5711,53,7446
14.15.16.530421,13978,14159,11627,9111,465,7285,24104,16732,837,17042,16805,-1946
14.15.16.568131,17292,13026,12680,13123,12147,14885,464,8836,14505,11389,22455,822
14.15.16.606106,4680,10580,14304,15216,24338,7997,11230,14521,16404,5792,-1682,22171
14.15.16.643475,12165,11949,18341,11668,498,10475,15781,17621,9821,10046,-500,17961
14.15.16.679870,13618,13346,11626,8991,450,13557,20863,10122,1715,15222,14649,-1799
14.15.16.717470,18821,14243,8630,12952,420,16501,10032,6774,14220,11316,20777,-1864
14.15.16.754836,5908,10702,13816,13348,24387,11960,1849,15461,13728,8922,10796,22008
14.15.16.792217,10711,11420,15077,13461,7710,10478,15385,13982,15973,6745,-1618,21966
14.15.16.829290,13351,13260,11797,8932,466,15687,16040,20977,2242,15319,11629,55
14.15.16.866021,19797,15203,2670,12324,439,21087,20752,541,6579,13795,22218,-1750
14.15.16.902801,13296,11544,12565,13269,24035,24456,2135,540,15084,10473,22457,-801
14.15.16.938833,4500,10424,14911,13683,24466,866,2840,2246,14752,9900,22405,22184
14.15.16.974297,8094,10872,15579,14875,14902,528,15182,18869,21804,7508,-1609,22085
14.15.17.012907,13727,12472,14267,8798,500,18029,15685,23745,-491,15116,9887,-1718
14.15.17.050761,19189,14342,5990,13037,428,24479,8515,533,14770,10508,22264,-1525
14.15.17.088744,4859,10423,15113,14016,24415,2609,7121,12036,13816,8050,20229,22093
14.15.17.126105,10928,11644,19562,13526,8490,5960,15111,24188,10799,10811,-1535,16140
14.15.17.163811,14012,13957,10885,9267,459,15980,18221,15958,-292,14645,11963,-1772
14.15.17.201162,17848,13952,10333,13114,13741,20093,5469,3488,14864,10077,22299,-1489
14.15.17.239201,5026,10523,14408,15007,24348,2639,14397,14710,16397,5475,-1745,22055
14.15.17.278128,12793,12568,18529,10921,509,12412,14767,23306,8410,13469,-1570,4353
14.15.17.315428,17905,15682,5010,12043,438,14642,12037,14885,14235,5824,-1647,22168
14.15.17.361449,12836,12249,15222,9249,479,13873,14693,17729,1910,15606,7969,233
14.15.17.399233,18958,15125,3828,12257,434,15647,17311,1046,9750,12274,19331,-1746
14.15.17.436530,12142,12171,12366,13246,24372,16252,3436,10856,14935,9675,22400,-1806
14.15.17.472509,4251,10351,15244,13548,24426,1417,9057,15900,13845,5610,-362,22159
14.15.17.510597,12020,11985,24643,11437,534,12669,15009,24231,8790,13351,-1715,5807
14.15.17.547835,15482,14231,5018,10565,452,16437,19461,8280,925,14967,14417,-1790
14.15.17.583808,19586,15100,2218,12674,417,19874,13964,487,12980,11101,21772,-1769
14.15.17.620518,9927,10982,13313,13268,24401,12754,3617,14155,14116,9446,22278,22058
14.15.17.657540,8510,11008,14286,15420,24334,2767,14358,14433,16436,8642,-1620,22118
14.15.17.696134,13391,12782,13830,8916,479,15004,14514,19404,2779,15815,6490,-291
14.15.17.733056,19101,15006,4331,12445,429,15791,15343,2129,10880,11598,17833,-1761
14.15.17.769775,12946,11024,13525,13159,24376,11997,4208,15106,14436,9863,22386,17578
14.15.17.806888,7021,10806,14340,14373,24360,4574,10232,15163,13267,6530,17104,22063
14.15.17.841701,10347,11677,17033,14126,19621,9353,14556,15255,17822,8713,-1709,20269
14.15.17.879827,13474,13157,11980,8978,467,14954,15704,16925,2308,15866,-728,3398
14.15.17.915827,18682,15258,1446,12301,429,16731,15694,571,12052,11275,21969,-1764
14.15.17.953546,10975,10709,13882,13188,24405,9919,4472,15775,13979,8516,22174,22039
14.15.17.992121,10524,11570,20361,13496,14944,6371,14296,14120,19082,8075,-1593,22105
14.15.18.028614,13307,12621,18474,10115,498,14011,14247,16036,4592,15670,3943,551
14.15.18.066299,18932,14932,3727,12635,1228,19878,12497,5702,14208,10609,22241,-1863
14.15.18.105651,5588,10305,14361,14751,24372,2975,11424,14219,14388,5569,504,22081
14.15.18.143595,12076,11766,19121,12554,587,11299,14620,15146,12022,13176,-1631,5793
14.15.18.182176,17180,15191,5389,11941,422,15585,15135,6220,10549,12103,15953,-1643
14.15.18.219501,13159,12191,12644,13147,24328,14996,6356,13553,14544,9754,22305,7861
14.15.18.256884,6991,10733,14255,15348,24351,4485,12407,13788,16210,5947,-1659,22072
14.15.18.294745,12796,12151,18443,10152,484,14318,14422,14470,2750,16030,5023,-57
14.15.18.332564,18541,15247,3483,11610,430,14910,17379,1461,13270,11261,20015,-1622
14.15.18.370028,11903,11548,13411,13246,24403,11768,4127,16105,14127,9581,22308,22035
14.15.18.408160,9279,11226,17648,14251,16561,9007,14485,16980,9448,12273,-1599,13500
14.15.18.447677,14702,14916,7388,9472,458,15622,16437,11588,255,15872,8238,-260
14.15.18.483804,19798,14991,3219,12964,419,24369,11128,3789,14378,10683,22258,-1772
14.15.18.521401,6723,10220,14528,13193,24413,6642,5403,16564,13904,8504,22113,21993
14.15.18.558933,10557,11380,16543,14774,24350,3121,14395,14484,19409,7351,-1613,22084
14.15.18.596095,13380,13306,13781,8840,477,15693,15797,14015,1223,16307,577,-1573
14.15.18.633128,19952,15180,1270,12698,434,20212,16199,487,10763,11431,22185,-1730
14.15.18.670277,10823,11125,13248,13316,24374,17655,4001,7972,14527,9777,22339,20166
14.15.18.707143,6647,10910,15480,15662,24343,512,13895,16151,17477,5476,-1653,22115
14.15.18.744502,12554,12109,23689,11484,531,14747,14364,24246,8062,14343,-1706,1903
14.15.18.782050,17572,15225,1064,10724,451,16058,18993,6768,3818,13615,17208,-1763
14.15.18.818685,16464,13074,9325,13221,21669,19945,5221,8217,14363,9835,22464,-1302
14.15.18.855926,4171,10410,15176,13450,24423,2106,10795,15794,13401,6489,7602,22084
14.15.18.892807,11163,11577,22690,12876,757,8450,14687,15952,18506,7868,-1643,22045
14.15.18.929657,13599,13146,11448,9440,467,16610,18120,12790,750,15348,9383,-1860
14.15.18.967681,19204,14625,3687,13044,425,24466,11005,518,14674,10158,22368,-1748
14.15.19.005289,5119,10331,14873,13291,24416,2913,7291,15903,13341,6244,8424,22031
14.15.19.044089,12387,12042,23737,11438,523,13200,14580,24232,8240,13648,-1634,11239
14.15.19.080858,14313,14507,2811,10004,456,16472,18553,8178,2273,13338,14259,-1813
14.15.19.118584,16684,13784,7481,13155,4602,24485,9891,520,14638,10128,22288,-1832
14.15.19.155285,5052,10381,14981,13307,24434,1986,6417,15090,13889,9431,22391,22217
14.15.19.191021,7492,10877,15579,15302,24352,513,14028,15715,18973,6695,-1547,22166
14.15.19.228344,12999,12107,21849,9669,511,16370,14487,22754,3981,16255,-39,-1827
14.15.19.266781,20419,14975,1477,12993,859,24493,10390,525,14571,10195,22376,-1792
14.15.19.306390,4571,10661,15546,14589,24385,515,13150,16730,17743,5541,-1575,22191
14.15.19.344275,12606,12048,22499,10036,525,12972,14367,24283,8430,14738,-1712,7108
14.15.19.381859,16488,14994,2427,11650,450,17727,18588,4248,3621,13852,18802,-1814
14.15.19.418940,16006,12729,9619,13248,22285,24010,7274,653,14701,9962,22326,2679
14.15.19.456600,4677,10506,15906,14317,24417,485,10160,16272,13442,5416,1771,22046
14.15.19.493794,12145,11768,23806,12671,8129,3090,14670,19491,11676,10498,-1574,20590
14.15.19.529812,13450,12769,13680,8909,469,16668,18297,9344,2077,13570,18724,-1843
14.15.19.568508,17365,13495,6465,13253,11351,24484,7107,1867,14594,9943,22327,1106
14.15.19.606140,4240,10423,14730,13930,24415,1272,7159,15578,13779,9321,22311,22065
14.15.19.641671,8959,11352,16877,14671,24351,1013,14404,15838,19121,6604,-1585,22174
14.15.19.678076,12633,12034,24286,10964,531,11789,14627,24231,8170,14495,-1580,15174
14.15.19.714494,14604,14307,6265,9610,465,16743,17131,12615,815,14795,10527,-1799
14.15.19.750441,20589,14990,610,12480,686,24101,14505,502,12457,11574,22280,-1717
14.15.19.786299,14109,12149,13170,13171,24367,19723,2714,7048,14437,9778,22355,9628
14.15.19.823711,5845,10836,15259,15496,24352,519,14436,16200,18114,5459,-1684,22043
14.15.19.862083,13136,12173,21092,9913,522,13920,15246,24181,5115,16249,-989,681
14.15.19.899774,20720,15047,568,12721,3991,21230,16141,497,10146,11724,22244,-1731
14.15.19.936950,11472,11475,13276,13176,24342,22288,560,8303,14628,9928,22417,-90
14.15.19.972423,3001,10453,15488,14909,24407,509,5923,16832,13554,6148,-861,22072
14.15.20.010530,11755,11893,24606,11792,542,12221,16425,24209,8271,11703,-1405,18969
14.15.20.048457,17221,14768,3344,11001,442,18466,23785,575,9501,12948,20180,-1675
14.15.20.086229,15060,12124,12815,13249,24412,20266,495,10021,14446,10533,22389,12447
14.15.20.123783,4048,10626,15183,15593,24366,522,13291,16214,18918,5028,-1559,22229
14.15.20.160540,11867,11872,23925,13175,540,2855,16484,17233,14977,7847,-1631,22057
14.15.20.197181,14040,13449,10581,9189,486,15669,22738,17662,278,15828,9545,897
14.15.20.233925,23773,15099,577,12648,2605,24454,13732,537,14741,11067,22293,-1806
14.15.20.271991,2384,10458,15294,13963,24419,479,1535,16814,13172,6704,8118,22200
14.15.20.309342,9392,11539,18712,14573,24380,751,16489,18719,17088,7328,-1703,18259
14.15.20.346969,13873,13621,12598,8854,479,17515,21183,21929,241,16030,15743,-1739
14.15.20.384459,23184,14663,722,13019,794,24483,9900,547,14649,11201,22327,-1666
14.15.20.421272,6121,10727,13920,13285,24389,16353,514,7097,14159,10573,22331,22091
14.15.20.458371,6700,11223,17122,14379,24292,516,15672,17204,20050,5809,-1546,22193
14.15.20.496279,13606,12886,13902,8790,487,17299,24333,18935,-39,16387,15902,-1741
14.15.20.534068,23991,15022,586,12799,435,24477,17127,520,14156,11709,22143,-1722
14.15.20.570979,8468,10711,14401,13213,24444,5032,1065,15826,13505,6307,-1617,22244
14.15.20.609869,10344,11663,23933,12612,541,6992,16781,22624,11208,10204,-1670,19068
14.15.20.648542,17261,14904,2543,11044,436,17635,24274,1089,7284,13203,20870,-1787
14.15.20.686002,17551,13600,6675,13053,10411,24496,3323,540,14882,10508,22248,3372
14.15.20.723721,1868,10719,15412,15131,24401,516,10371,17201,13928,6553,-1508,22122
14.15.20.760402,11075,11960,24653,11613,546,10974,17248,24225,9741,11223,-1605,9623
14.15.20.798536,18134,14881,561,11966,438,17635,24443,490,7508,13828,21397,-1770
14.15.20.836686,13550,12249,11852,13169,24364,22383,488,709,14791,10372,22300,-1810
14.15.20.873835,2317,10779,15537,14592,24414,493,5892,17017,13739,5264,-1657,22119
14.15.20.910581,11882,11833,24488,12577,527,10254,17304,24230,9625,9816,-1582,22138
14.15.20.947041,13699,13250,10482,9316,467,16979,23361,20120,572,15641,18042,-1818
14.15.20.985645,18157,13323,8015,13251,24135,24488,1835,527,14692,10414,22343,-1791
14.15.21.023053,2459,10555,15138,14460,24388,500,8912,17345,14813,5184,-1706,22081
14.15.21.061217,12331,12004,24525,11632,541,12286,17096,24198,8161,12864,900,4715
14.15.21.098557,16598,14942,2911,11086,437,16618,24104,485,9702,12531,20466,-1643
14.15.21.136852,12871,11335,13831,13237,24411,11036,515,8802,14239,10191,22428,22118
14.15.21.174270,5052,10743,15300,15415,24360,524,11037,17761,16100,4794,-1640,22137
14.15.21.210776,11831,11888,23893,11319,532,14740,16557,24046,5619,14310,5894,-1211
14.15.21.250315,22075,15131,569,12115,442,19774,22533,486,11570,13058,19445,-1678
14.15.21.286411,14712,13313,10586,13181,24351,20447,499,1932,14676,9764,22291,3149
14.15.21.324034,4206,10910,15268,15525,24377,1678,16088,17064,19051,5727,-1609,22093
14.15.21.362539,13239,12227,18978,9719,519,15227,16853,23986,3280,16306,13725,313
14.15.21.400532,22105,15023,567,12586,3841,24084,15113,518,14905,11019,22296,-1867
14.15.21.439292,2949,10415,15090,13584,24419,776,1786,15121,13315,9350,10883,22124
14.15.21.475816,9606,11661,23398,13092,526,6954,16863,18977,16480,6337,-1652,21465
14.15.21.513214,13585,12867,12199,9019,461,16704,24315,16154,1554,14996,18518,-1853
14.15.21.552371,17524,13735,10466,13183,21769,24244,581,576,14795,10783,22434,745
14.15.21.589643,2516,10335,15244,13274,24425,897,586,13424,13539,9691,17247,22116
14.15.21.625514,8813,11392,19273,13612,2609,10843,17338,24205,9850,11775,8072,13748
14.15.21.665480,17375,14756,944,11391,450,16692,24438,9927,3249,14573,18000,-1818
14.15.21.703009,15441,12740,10969,13195,24337,21679,488,2039,14525,10232,22450,3629
14.15.21.740805,4383,10934,15171,15554,24341,513,14162,17155,19071,5401,-1535,22138
14.15.21.779081,13212,12196,20494,10583,517,15270,16565,24028,4635,15157,5214,18016
14.15.21.815490,17141,14963,569,11528,435,19078,24275,537,9551,13829,18899,-1708
14.15.21.852926,15821,13356,10149,13236,22907,23756,509,816,14135,10140,22490,21066
14.15.21.890792,4476,11015,15405,15443,24345,513,14317,17402,18957,5683,-1577,22084
14.15.21.928833,13035,12050,20183,10051,523,13804,16878,24071,7736,12920,-820,7842
14.15.21.964290,14093,13985,9326,9650,444,16712,24428,5283,8100,10175,22479,9467
14.15.22.007057,3123,11472,19704,13790,13959,3845,16987,20870,12961,7647,-1464,22195
14.15.22.046031,13370,12178,20094,10113,524,14445,16800,24076,5450,13307,6443,16006
14.15.22.081748,15408,14715,2234,11337,453,16357,24431,6983,4886,12189,17762,-1670
14.15.22.119721,15283,12683,10188,13187,22008,24153,495,515,14902,10570,22378,-1760
14.15.22.156236,2926,10416,14654,13576,24414,471,3981,15056,13030,6717,-4,22180
14.15.22.193843,11559,11690,23441,12632,514,8605,17238,24188,7604,13993,7057,5682
14.15.22.232323,17821,14883,2061,10494,451,16429,24405,15255,2358,14702,17372,-1748
14.15.22.268020,20819,14414,5651,12945,15351,24475,9450,517,14390,11457,18267,-1708
14.15.22.304302,9898,10977,14045,13063,24417,10955,507,12478,13547,9747,14396,22092
14.15.22.342693,9786,11440,18082,14493,22663,7003,16578,17465,16576,7372,-1698,17025
14.15.22.380374,13809,13360,12635,9001,461,16549,20893,23285,849,16118,16274,-1546
14.15.22.418181,20424,14389,6631,13179,21002,24473,3548,508,14902,10393,22318,10143
14.15.22.457084,3632,10699,15166,15165,24361,500,5781,15771,13044,7438,2990,22118
14.15.22.492843,10065,11572,21982,12918,517,9009,16735,23088,14083,8501,-1704,15806
14.15.22.530629,13795,13156,12819,8836,469,16443,20136,22752,880,15834,15668,-1581
14.15.22.568452,19567,14509,6555,12990,13733,24460,10009,523,14841,11024,22180,-1816
14.15.22.604877,6969,10868,13981,13147,24414,10472,507,8807,14119,9680,4619,22135
14.15.22.642340,9056,11261,15954,15216,24359,498,15392,17464,16896,4828,-1718,22036
14.15.22.678450,12651,11991,22636,9935,513,15033,16355,23976,4301,15929,12758,675
14.15.22.717044,21784,15065,550,12353,554,22424,18124,503,14095,11612,21697,-1762
14.15.22.755940,3071,10485,14793,13432,24416,2993,506,12368,13534,8415,15243,22164
14.15.22.791789,7597,11237,15251,15465,24342,505,13404,17322,17137,5070,-1618,22142
14.15.22.827708,12035,11999,23720,11243,529,13273,16861,24076,6710,12847,11360,1113
14.15.22.866044,20104,15064,558,12231,434,19597,23832,1824,8105,13188,16584,-1819
14.15.22.903668,12809,11851,12353,13229,19167,23383,687,1846,14588,10198,22369,21891
14.15.22.941127,5307,10999,15229,15590,24340,504,13307,17386,17668,4983,-1597,20056
14.15.22.979850,13508,12390,17746,9798,486,15683,16714,23993,5236,15695,10882,2206
14.15.23.015508,16687,14957,2762,10522,444,16626,24418,3026,6748,13262,16663,-1777
14.15.23.053601,13530,11810,12847,13230,24409,14911,503,7015,14287,10096,22506,17576
14.15.23.090132,2839,10642,14930,15099,24370,503,9070,17184,14053,5470,-1414,22250
14.15.23.126316,10137,11442,19363,13573,1397,8054,16541,17414,16735,7412,-1571,21098
14.15.23.162909,13423,12192,17301,9131,468,16140,19152,23246,1276,15302,16558,-1102
14.15.23.200969,21904,14973,707,12752,423,24469,10777,503,14016,11367,21699,-1841
14.15.23.239297,3380,10440,14470,13513,24414,1727,1684,15163,12936,6788,-1209,22092
14.15.23.277192,11264,11849,21563,12803,512,10723,16570,20454,14914,7419,-1588,18329
14.15.23.313042,13422,12464,14630,8866,474,15771,17511,23939,1492,16500,14498,-636
14.15.23.350947,21907,14766,1560,12880,422,24472,9399,518,14732,11044,22286,-1811
14.15.23.389155,3786,10430,14289,13260,24419,9934,503,11029,13600,9179,10546,22060
14.15.23.426501,10363,11519,18480,14180,24377,2645,16323,17521,16486,7706,-1677,13275
14.15.23.464032,13762,13334,14066,8848,459,16477,22475,21200,1005,16437,15419,-897
14.15.23.500851,21960,14891,1249,12751,431,23023,16084,505,10225,12544,17270,-1759
14.15.23.536665,14682,12670,10638,13187,9097,24140,1347,494,14677,10846,22380,-894
14.15.23.572984,2886,10488,15047,14082,24390,491,9552,16936,14880,5005,-1658,22128
14.15.23.611452,12309,11954,24129,12092,516,10255,16949,24230,9582,11120,2115,4073
14.15.23.648344,14961,14697,3756,10331,445,16575,24412,10758,1647,14473,16328,-1088
14.15.23.684534,21578,14541,3948,12967,5753,24458,15288,503,14369,11415,21161,-1705
14.15.23.721871,5338,10464,14720,13623,24393,488,7747,16053,13868,5203,-1592,22202
14.15.23.760087,10744,11759,21679,13611,4738,10347,16856,20555,13346,9004,-1080,7839
14.15.23.798054,14397,13595,9226,9230,453,16463,22936,19929,1246,15970,16483,-1666
14.15.23.835585,17115,13386,8322,13090,22409,24354,789,1119,14664,9998,22332,15618
14.15.23.873369,2830,10495,14950,14540,24354,485,9061,16658,14233,5333,-1591,22150
14.15.23.911622,12484,12020,21573,10067,498,15419,16016,24072,5171,14328,6689,2799
14.15.23.949203,17995,14762,1690,10770,435,16140,24414,8487,4074,13791,17039,-1751
14.15.23.986780,14418,12089,11703,13250,24338,20556,486,2363,14348,9890,22295,22035
14.15.24.024802,6185,11146,15503,15422,24335,652,14773,16999,18885,6551,-1588,21123
14.15.24.062807,13255,12166,17072,9617,484,15777,16846,23949,3681,16213,14141,506
14.15.24.100801,21940,14977,1083,12582,426,21548,22423,482,11449,12287,16218,-1695
14.15.24.137291,12196,11748,13247,14201,24397,993,3034,15340,13033,6051,-1630,22166
14.15.24.177006,11295,11718,20437,12759,549,8107,16518,19565,13905,8947,-1587,12624
14.15.24.213614,13648,13065,14255,8845,462,16404,22783,17925,2104,14575,16350,-1623
14.15.24.252407,18090,13471,9864,13173,24331,22052,481,2630,14259,10097,22448,20727
14.15.24.290788,4102,10708,14933,14696,24390,486,2983,14998,13010,6133,-1570,22154
14.15.24.327453,11572,11898,23448,12930,524,8607,16693,22259,14800,8573,-1582,18746
14.15.24.363046,13406,12310,15064,9030,456,16450,22641,22762,839,16090,15182,137
14.15.24.400059,21083,15034,790,11495,436,16419,24071,1099,8963,13524,16204,-1762
14.15.24.436885,14033,12810,9851,13200,19200,22996,667,997,14552,10228,22472,10263
14.15.24.473225,2790,10552,15004,15653,24343,507,11749,16918,17343,5316,-1659,22119
14.15.24.511496,12339,11920,23426,11130,503,14427,16295,24144,6718,14380,11688,613
14.15.24.550022,20892,15001,624,12205,499,22151,21464,484,9577,11852,16060,-1651
14.15.24.587142,13007,11659,12905,13208,24402,14965,497,5094,14040,10076,22456,21364
14.15.24.624453,5093,10723,15021,15422,24357,490,10157,16602,15653,5050,-1641,22111
14.15.24.661981,12700,12063,22738,11261,523,15093,16326,24088,6927,12554,5120,7123
14.15.24.698381,14948,13920,10731,9335,440,16369,24411,17368,1167,16088,15436,-1802
14.15.24.734719,21103,14852,729,12722,6109,24451,11717,516,14551,11240,22340,-1838
14.15.24.773027,3118,10578,15008,15171,24373,494,12180,16838,17738,5261,-1672,22069
14.15.24.812270,12913,12116,20055,9845,507,14749,16718,24037,4543,15854,14046,704
14.15.24.850563,21670,14936,1603,12899,2319,23042,15527,509,14432,11245,21675,-1709
14.15.24.888400,6881,10630,13762,13215,24403,9584,500,12149,13468,9469,15138,22167
14.15.24.925456,8246,11354,15887,15428,24351,1414,15653,16889,17091,7179,-1674,15776
14.15.24.963422,13556,12339,15287,9038,495,14878,15789,24021,3879,15690,13158,774
14.15.24.999934,20470,15008,618,12119,415,20251,20104,483,12646,11835,17669,-1759
14.15.25.037587,10952,11748,12300,13191,24342,21521,473,2155,14350,10060,22380,6600
14.15.25.072993,3266,10546,14691,14032,24377,478,10055,16590,14377,5561,-1448,22244
14.15.25.110542,11387,11783,22259,12775,518,5725,16091,17787,13555,8725,-1153,11696
14.15.25.147413,13738,13026,12968,8856,458,15896,16945,23966,2303,16283,14904,468
14.15.25.184053,21587,10664,14953,15471,24342,505,12969,16604,15849,5106,-1566,22229
14.15.25.228010,12232,11915,22727,11778,510,10901,16656,23987,9248,11831,4338,10017
14.15.25.264260,13797,14340,7721,9350,451,16219,23291,15713,1342,13983,15469,-1770
14.15.25.302249,18583,13594,8210,13095,16861,24472,10794,513,14778,11535,20956,-1705
14.15.25.338037,8650,10803,13847,13225,24400,5022,499,11507,13592,8706,7077,22066
14.15.25.375312,7881,11074,15035,15636,24334,500,14171,16772,18887,5555,-1564,22132
14.15.25.412656,13137,12077,18723,9523,476,15712,17814,23949,1889,16307,14282,-1346
14.15.25.450586,21493,14865,3350,12798,8905,24457,7837,509,14467,11637,18506,-1697
14.15.25.488592,6310,10616,14340,13279,24407,8969,496,8787,13905,9946,14254,22104
14.15.25.525766,8904,11367,17714,14426,12019,4568,16149,22960,10148,9582,-485,11015
14.15.25.564711,14150,13948,9372,9582,433,16157,24407,18912,1630,14514,15535,-1472
14.15.25.601506,20647,14755,2450,12608,1376,22264,16998,495,12795,12005,16483,-1808
14.15.25.638722,5885,10430,14269,13253,24398,1893,714,12587,13739,9559,9981,22099
14.15.25.676038,9417,11330,15672,15308,24355,497,15094,16643,17996,7100,-1571,20528
14.15.25.712724,13092,12106,19586,9771,490,14464,16415,24082,4990,15683,13000,2198
14.15.25.749455,18418,14971,1225,12456,577,20673,22710,468,11132,12357,15009,-1754
14.15.25.786821,14378,12573,11246,13200,24326,23544,1311,2091,14550,10167,21780,22059
14.15.25.824652,5809,10818,14881,15716,24340,499,12499,16596,17381,5214,-1614,22190
14.15.25.862923,13301,12422,15296,8950,478,15406,16271,24005,2581,15732,13497,2371
14.15.25.900233,20989,15018,1234,12521,1099,20890,21816,474,11851,11972,16382,-1733
14.15.25.937883,9791,11448,13565,13127,24399,9102,497,11484,13809,9932,19068,22126
14.15.25.974781,6279,10942,14888,15051,24336,500,10864,16491,15431,4970,-1674,22114
14.15.26.011559,12378,11961,22087,11838,515,10862,16439,21211,12593,9163,3957,10030
14.15.26.047732,13865,14081,7662,9522,442,16106,24409,16241,1059,14861,15236,-1701
14.15.26.086092,16260,13370,8861,13050,22903,24464,3662,496,14716,10378,22412,1404
14.15.26.122806,1927,10422,15732,13776,24413,583,5130,15461,13933,5207,-1669,22215
14.15.26.161185,11616,11997,24616,11460,535,13264,16550,24098,11529,10493,7154,2532
14.15.26.198813,17377,14480,2685,10453,453,16235,24113,16173,375,15594,15145,-1831
14.15.26.234966,24036,14445,564,13102,14167,24489,9339,526,14272,11276,20088,-1697
14.15.26.271258,8896,10802,3798,13225,24442,4915,522,11098,14259,10155,16646,22140
14.15.26.307670,1487,10673,19089,15063,24379,510,7699,16132,18043,4955,-1578,22199
14.15.26.344610,11472,11991,24606,11379,538,11024,16480,23647,10531,10706,3562,12203
14.15.26.380852,13904,13951,1664,10115,440,16215,24437,3845,6842,12800,14625,-1755
14.15.26.419608,18255,13732,511,13129,24341,19179,659,3226,14782,10161,18068,22080
14.15.26.458185,4445,10917,18029,15589,24343,504,13917,16372,18579,5197,-1677,22070
14.15.26.495804,13073,12693,23588,9061,486,15270,16476,23960,1701,16172,14203,272
14.15.26.533675,22866,15077,562,11881,428,16284,24427,5536,4976,13408,15870,-1761
14.15.26.569639,17468,13474,2166,13265,24334,22612,765,1324,14635,10503,22474,7417
14.15.26.606401,1777,10619,16465,14152,24387,486,4164,13886,13472,7410,3617,22125
14.15.26.642581,8596,11345,23808,14381,22804,2326,15000,16111,20599,5596,-1612,16157
14.15.26.680328,13566,12444,20181,8950,456,15960,16826,24013,1022,16116,13692,8
14.15.26.717247,22567,14980,558,12329,421,17692,22049,493,10601,12360,16097,-1741
14.15.26.754235,11247,11872,9493,13155,24317,22670,854,1222,14747,10311,22399,4773
14.15.26.790342,2542,10578,16438,14384,24395,1103,4479,15117,13443,8297,2810,22131
14.15.26.826511,10032,11501,21769,14868,24354,494,14982,16367,19406,6736,-1685,14776
14.15.26.863872,13535,12820,19978,9034,478,15163,16091,24075,4536,15122,13738,1152
14.15.26.899854,20724,14989,548,11756,421,16581,23901,1519,7824,12736,14606,-1781
14.15.26.937111,13380,11919,11527,13215,24357,21018,502,1775,14637,9927,22417,18668
14.15.26.973621,2684,10709,16234,14515,24396,482,7003,15859,13961,5516,-1712,22062
14.15.27.011080,11684,11958,24626,12646,521,11942,16310,22660,11436,10130,4395,5411
14.15.27.048485,15401,14368,4951,9288,442,16222,22544,23543,-262,16110,15471,-1500
14.15.27.084523,21982,14909,553,12590,1188,20156,22889,2654,3445,14525,15279,-1708
14.15.27.119433,17361,13196,6340,13128,24151,23936,2164,612,14724,10239,21061,21535
14.15.27.157127,3077,10597,16138,14827,24358,486,11209,16285,18015,5236,-1535,22116
14.15.27.195908,13015,12092,24624,11244,505,14118,16163,24148,6052,14364,12596,815
14.15.27.233194,20662,15020,547,12318,789,22287,21421,478,8942,13407,14433,-1676
14.15.27.271128,9617,11084,12850,13213,24352,20912,554,1948,14599,10249,22342,10417
14.15.27.306387,2844,10466,15525,13414,24407,8141,493,11874,13967,10185,15244,22099
14.15.27.341990,7567,11024,16590,15578,24344,2724,15492,16381,19707,6095,-1547,12349
14.15.27.380173,13454,12885,15655,8875,458,15819,18050,23976,1277,16282,14811,-134
14.15.27.416972,21828,15020,559,12167,423,18640,21524,476,11389,12047,15917,-1763
14.15.27.454740,8581,10689,14515,13256,24408,4382,496,12588,13628,8186,7149,22205
14.15.27.493006,9946,11551,21107,14826,24352,765,14890,16578,16659,6886,-1531,19295
14.15.27.529280,13023,12401,21961,8917,473,15501,16453,24052,4110,15530,13829,1136
14.15.27.567101,21846,15028,552,12423,476,18501,22062,485,13946,11820,16432,-1741
14.15.27.604475,9501,10558,14754,13170,24401,7985,496,12609,13864,9880,12743,22132
14.15.27.641048,4734,10714,15919,15272,24342,486,11683,16327,16478,5017,-1634,22137
14.15.27.678436,12374,12064,22905,10391,498,14788,16219,24080,5450,14536,12488,2402
14.15.27.715610,16675,14946,532,11043,425,15768,24415,11566,3521,14671,15311,-1753
14.15.27.751820,20057,14627,602,12867,8210,24458,10439,503,14203,11425,16630,-1727
14.15.27.787673,10649,11383,12879,13102,24399,9897,4219,13996,13909,5339,-1563,22248
14.15.27.827453,11502,11787,23817,12967,515,8763,16316,21138,12782,9783,3211,9216
14.15.27.863617,13447,13130,11259,9082,454,16061,22494,17206,219,15548,14998,-452
14.15.27.901468,21076,14866,545,12508,3567,23617,16517,490,10444,12970,14209,-1781
14.15.27.937293,12321,12112,10538,13171,23745,23305,2343,487,14626,10098,22391,14520
14.15.27.973305,2937,10482,15536,13485,24397,1027,4001,14803,13384,5721,-990,22145
14.15.28.010211,10711,11727,24605,12222,517,10849,16612,20777,15909,8141,1247,8709
14.15.28.047788,13922,14355,4426,9784,448,16019,24415,14975,720,15699,15008,-694
14.15.28.084890,20754,14475,3065,13058,21642,22971,3351,493,14743,10435,22334,13766
14.15.28.123782,3514,10833,15824,15559,24335,498,9077,15919,14736,5183,-1673,22111
14.15.28.161398,12164,11912,24601,12193,518,12430,15871,24239,8220,12640,10092,2934
14.15.28.198368,14820,13829,4757,9400,441,16006,22872,12341,1932,15063,15189,-747
14.15.28.234467,21424,14857,542,12700,1720,20537,18536,482,11266,12919,14480,-1787
14.15.28.270157,14276,12817,8484,13119,23106,23838,1791,475,14593,10371,22238,11774
14.15.28.306944,3230,10727,15763,14700,24356,477,6325,14350,13177,6035,451,22073
14.15.28.344010,11387,11894,24618,12314,511,11594,16255,19571,13956,8810,-693,14897
14.15.28.380412,13541,13023,14495,8988,458,15984,23689,14955,756,15065,15703,-962
14.15.28.418261,20499,14415,1273,12971,15075,24471,8037,510,14728,11057,22371,-1757
14.15.28.455040,7025,10761,13782,13199,24391,14959,477,2965,14322,10062,19369,22098
14.15.28.491453,6400,10928,15862,15529,24336,490,12322,16273,17872,5018,-1624,22102
14.15.28.528440,12484,11958,24624,10855,495,14215,16105,24191,7431,13436,13014,1172
14.15.28.566527,20645,15013,542,11708,441,17197,22478,1142,6995,13711,15812,-1706
14.15.28.603070,15894,12627,11931,13197,24357,18463,487,758,14641,10335,22358,22087
14.15.28.640605,3955,10851,15763,15627,24330,496,13267,16425,19397,5358,-1519,22215
14.15.28.677895,12000,12010,24626,11844,509,13281,16614,24174,6795,14205,12681,1090
14.15.28.716005,18523,14796,536,11914,433,15995,24142,503,11268,11972,16433,-1856
14.15.28.754993,7247,10606,14871,13318,24406,1361,5152,15443,15218,5093,-1571,22244
14.15.28.793793,11159,11726,24196,13304,11123,5955,15688,17884,15057,7301,-1550,21131
14.15.28.829172,13015,12056,22345,10246,504,14126,16356,24092,4855,15296,13757,1534
14.15.28.866973,21290,15015,544,11894,423,21506,1296,497,14683,10857,21749,-1750
14.15.28.905551,4936,10541,15608,15526,24331,493,11622,15908,16616,5019,-1689,22073
14.15.28.945524,12805,12037,20477,9189,457,15540,17586,23975,1439,16241,14902,295
14.15.28.983983,21539,14128,8004,13089,23287,24459,5563,499,14784,10926,22010,-1712
14.15.29.022468,4099,10508,15308,13252,24399,6553,499,11417,13943,9744,8682,22043
14.15.29.058868,8697,11184,17421,14866,20677,2878,15734,16553,18374,8269,-25,12959
14.15.29.097224,13575,12786,14223,8926,471,15689,19225,23494,420,15951,15135,-1417
14.15.29.134581,20955,14718,594,12624,1148,20872,17787,490,13379,11922,17836,-1791
14.15.29.171136,9781,10758,14528,13167,24414,11815,495,8884,14266,10133,20760,22079
14.15.29.207899,5912,10964,15851,15155,24347,484,9640,15826,15559,5094,-1591,22208
14.15.29.243471,10812,11654,22207,14069,17207,4991,16300,20919,14467,11823,10329,2850
14.15.29.282233,16642,14819,541,11904,430,17477,24108,1125,6382,13338,15288,-1748
14.15.29.320109,14078,12704,9463,13132,16024,24433,3565,492,14776,10326,22326,14788
14.15.29.356707,3307,10640,15465,14069,24391,923,4331,14575,13234,6987,-67,22164
14.15.29.393319,10588,11529,22540,13216,509,9018,16313,22223,11221,10199,10251,3611
14.15.29.433192,20498,15077,544,11845,416,15777,24403,6556,3294,14589,15009,-1784
14.15.29.468600,19378,14529,1162,12835,6368,24002,16088,494,13915,12172,15554,-1763
14.15.29.504918,7222,11029,14334,13161,24392,11538,485,9092,13707,10007,13586,22128
14.15.29.542177,8500,11191,16034,15403,24342,624,14574,16640,19168,6460,-1572,19947
14.15.29.579121,13087,11861,24010,11119,525,12801,16425,24205,8648,13937,-1641,2926
14.15.29.615553,17519,14962,900,11384,441,16817,24446,2709,4987,13582,18661,-1682
14.15.29.652490,18130,14115,4695,13128,1426,24490,7285,544,14629,10850,22284,-140
14.15.29.689576,980,10461,15334,13413,24448,5864,562,10435,13556,8207,22257,22123
14.15.29.726073,8575,11178,19083,14704,22357,4063,15332,19943,16999,7506,-1632,8669
14.15.29.763783,14185,12936,10784,9014,493,16735,24129,21023,2009,14097,4365,-1802
14.15.29.802032,20468,14939,3147,12849,436,24485,11444,546,14511,11722,22298,-1741
14.15.29.838540,2216,10864,13761,13150,24442,3992,530,480,13678,8860,22284,22136
14.15.29.875428,7151,11020,15679,15367,24383,531,12314,11873,18311,5247,-1575,21961
14.15.29.911790,12972,11879,24366,11085,535,13864,16562,23895,11367,10258,-1697,2815
14.15.29.948348,16372,14549,2560,10497,481,16209,24336,23158,652,15760,-1733,-1421
14.15.29.985316,21306,13678,9907,13117,8623,22500,1019,543,14772,10432,22365,2565
14.15.30.022803,575,10160,15226,13395,24441,1951,701,633,13411,7765,22271,22162
14.15.30.060062,10420,11636,24518,12916,7925,10510,16711,24051,12009,8646,-1564,7102
14.15.30.097065,14350,13171,10918,9147,493,15929,21260,23304,1413,14327,-333,-1678
14.15.30.135704,20222,14288,4972,13071,11568,24176,3390,541,14757,10529,22341,21589
14.15.30.173451,568,10437,15373,14965,24396,511,8796,14770,14415,5659,16384,22132
14.15.30.209738,9798,11328,17510,14656,24393,5040,14466,20393,18479,6791,-1610,11269
14.15.30.246422,13883,12136,17237,9719,527,14826,16578,23766,6320,14321,-1664,1183
14.15.30.282667,21434,15148,1289,11006,462,15747,24366,9105,8570,13813,7517,-1669
14.15.30.319439,16909,13526,11386,13168,18762,16889,515,485,14268,10311,22470,22144
14.15.30.356932,776,10494,15354,14285,24419,521,6145,13749,13849,5186,6201,22081
14.15.30.394123,11626,11918,24494,11041,537,14376,16544,23800,6099,15407,-1597,1161
14.15.30.433074,23402,15250,577,11603,442,15672,24446,5958,6226,13620,22277,-1780
14.15.30.469729,15917,13498,8496,13126,23748,21196,861,537,14859,10639,22361,4076
14.15.30.505863,1002,10328,15165,13452,24428,1348,3028,9892,13171,6324,21358,22201
14.15.30.542712,9181,11508,18724,13671,9239,11910,16381,22732,12660,9212,-1625,4736
14.15.30.581485,15504,13802,6287,10490,453,15930,24442,18953,3935,13969,18448,-1786
14.15.30.619560,16948,13213,9194,13202,24399,12121,542,867,13946,10031,22462,22196
14.15.30.658090,5029,10566,15977,14903,24374,520,14623,17407,16693,5013,-1463,22184
14.15.30.693701,10491,13707,23008,12528,536,11518,17941,24006,11198,9977,-1600,3776
14.15.30.731463,16482,14439,5857,10245,471,16301,23856,23217,419,16009,-1735,-1227
14.15.30.768454,22085,14511,4764,13057,967,24505,7571,540,15035,10789,22381,-1694
14.15.30.804879,3531,8322,14026,13599,24451,7932,535,509,13206,9603,22439,22223
14.15.30.841852,1964,9834,14938,15658,24421,521,11443,11920,16834,4868,4669,22139
14.15.30.877053,13634,10830,21536,13692,7354,11105,16811,24148,12233,7822,-1545,22242
14.15.30.913386,17222,14506,14544,8998,518,15478,18485,23562,1861,16584,-1733,1455
14.15.30.950839,24488,13974,2069,12864,454,19868,23602,1751,12303,12327,16962,-1692
14.15.30.987046,17095,7625,12885,12949,18110,21488,648,563,14667,10761,22374,-1227
14.15.31.023873,613,8159,15097,15248,24463,524,1754,9223,14144,4806,10692,22074
14.15.31.060537,531,12135,22487,12471,569,13965,17584,23717,5704,15174,-1668,11493
14.15.31.099330,24464,19565,1874,12010,469,19173,24483,13090,9789,12680,15062,-1659
14.15.31.136816,22075,5969,11940,13052,17713,23656,527,568,14725,10302,22379,-1732
14.15.31.173235,619,8598,14985,14398,24467,529,2297,2492,14722,5790,20142,22291
14.15.31.209933,777,12315,20334,13602,10918,10184,16524,23941,11622,9682,-1524,22140
14.15.31.247253,22530,19417,11829,9516,518,15944,18675,23304,1111,16344,9518,-1782
14.15.31.284380,24488,15489,2192,12604,444,22471,21247,8287,11289,12920,22277,-1668
14.15.31.320184,21433,6488,12977,13202,24247,17090,520,527,14518,10376,22342,22046
14.15.31.357675,589,10033,15066,15433,24395,539,13581,15755,18891,4944,-1534,21841
14.15.31.395450,14578,13125,18585,9793,523,15832,16823,23646,4661,14420,-1671,-257
14.15.31.433356,24467,16539,594,12418,442,17746,22940,6139,11089,12542,22232,-1711
14.15.31.471155,1396,8437,14476,13098,24454,7160,542,2355,13173,5841,4744,22170
14.15.31.510952,9426,12285,23147,12230,540,12078,16694,21499,16124,7548,-1586,8410
14.15.31.547552,19194,16473,5128,9923,463,16347,24450,23495,3476,14288,18077,-1787
14.15.31.585059,24460,12861,8922,13080,16615,22988,554,538,14725,10766,22429,5718
14.15.31.622504,594,9143,14992,13195,24461,6516,539,793,13366,6361,6683,22145
14.15.31.660094,856,12258,21574,12685,672,13120,16685,23997,10817,9824,-1684,2958
14.15.31.698039,24219,17868,7891,9826,500,15845,20626,23386,1549,16754,2668,470
14.15.31.734114,24506,14478,1294,12806,455,23199,23278,2484,12667,13557,22306,-1653
14.15.31.770496,13015,7129,13969,13071,24468,14471,535,539,14127,10457,22539,1743
14.15.31.806834,622,9983,15000,15259,24462,541,4359,6906,15637,5393,562,22067
14.15.31.844692,8153,14176,18775,10965,574,13902,16164,23770,7665,11270,-1580,17408
14.15.31.881306,24362,19404,8376,10422,506,15799,24480,23082,3274,14356,-1756,-1734
14.15.31.919409,24470,7830,10814,13096,2652,24550,8932,582,14754,10634,22403,-1692
14.15.31.955303,600,6600,14197,13256,24469,9210,551,494,13943,10030,22437,22166
14.15.31.991628,575,11778,16506,14127,20251,7385,15726,24005,11860,8266,-1591,4345
14.15.32.030635,22296,17988,11523,9332,496,15405,22460,23226,853,15939,15475,-1829
14.15.32.067962,24473,14329,1854,12908,453,23551,15099,554,14280,11462,22284,-1707
14.15.32.104954,585,8238,14389,13152,24455,7059,546,476,13883,9763,22318,22171
14.15.32.142624,956,11935,24078,13183,11925,7521,16849,22886,13906,9276,-1577,7064
14.15.32.180797,19743,16207,8658,9601,469,16640,21660,23324,879,16845,3591,-82
14.15.32.217258,24480,15933,579,11928,445,20536,23886,8044,10515,13558,22137,-1636
14.15.32.252507,24413,11796,8501,13071,12136,23769,1386,538,14586,10724,22430,14171
14.15.32.289426,592,9624,15336,13575,24450,500,2769,4720,13413,5682,7989,22110
14.15.32.327194,9071,12163,24487,11564,551,14701,17037,24136,12824,9217,-1657,10219
14.15.32.363778,17457,15024,12487,9258,506,16011,17388,23629,1884,16520,1863,653
14.15.32.400144,24472,15855,562,12259,441,18516,24398,8182,9354,12640,20907,-1771
14.15.32.437188,7596,10179,13617,13173,24410,11216,515,467,14267,10309,22483,17751
14.15.32.472999,577,9866,15227,13714,24438,514,3891,18397,13794,5283,2797,22223
14.15.32.509756,6936,11738,20803,13679,10155,9453,16536,17877,14469,8483,-1698,8583
14.15.32.547199,16064,15262,7165,9565,451,15510,23964,23877,1044,16248,9420,2067
14.15.32.583530,24461,15550,778,13043,4127,23433,5756,517,14068,11681,22284,-1802
14.15.32.621552,601,9396,14454,13266,24422,5927,500,8642,13250,7611,15090,22109
14.15.32.659713,8481,11620,17125,14201,22824,9074,16479,16021,13597,7912,-1512,16049
14.15.32.696452,15132,13084,15958,9594,465,15250,23047,21003,1431,15360,16255,-1540
14.15.32.734523,24452,14180,5251,12812,679,24431,6754,507,14153,11567,22271,-1776
14.15.32.771921,540,9842,14925,13580,24406,1979,2444,10957,13276,9121,18848,22012
14.15.32.809481,8457,11649,22859,12027,524,12245,16095,15843,8947,11890,-687,2661
14.15.32.848178,18322,15220,6275,10608,443,15684,24399,16943,2362,14807,14708,-1718
14.15.32.885298,22545,13429,9345,12963,421,21479,10336,3659,14434,11555,22271,-1725
14.15.32.922156,535,10013,14596,13330,24391,1874,5534,13901,13553,5588,-1505,22111
14.15.32.960192,11026,11791,20450,12457,3530,13211,16601,15212,10297,10854,-1641,5790
14.15.32.997900,16478,14896,6506,11235,441,14643,24411,11152,6002,13663,16751,-1711
14.15.33.036019,17398,13040,11517,12957,17504,16352,489,467,14271,10327,22439,22164
14.15.33.073889,613,10613,14873,15444,24352,1273,13542,20681,18709,4615,-1614,22171
14.15.33.111155,12611,11984,24653,12404,3910,13089,17157,23563,12322,9139,-1686,7093
14.15.33.147759,16799,14765,8262,9333,493,15482,24185,23115,569,16485,13315,2218
14.15.33.183955,24508,15476,629,12515,460,22846,24456,557,13753,12486,22076,-1596
14.15.33.220757,4759,10618,9238,13123,24413,18759,556,541,14836,10255,22466,5126
14.15.33.256512,611,10222,18228,14103,24470,518,542,458,13304,8358,15543,22212
14.15.33.292443,1684,11521,24626,13510,17932,7370,17202,23771,12493,8250,-1544,-1349
14.15.33.334834,24492,14328,552,13043,2586,23971,1741,556,14983,11438,22451,-1598
14.15.33.371965,593,9957,14412,13248,24463,8566,558,508,14347,10124,22402,22110
14.15.33.408299,1186,11206,21996,14233,19527,8238,16062,23832,14974,8647,-1533,7423
14.15.33.446850,15048,13219,18789,9390,489,16433,24394,23190,696,15671,15293,-519
14.15.33.484274,24478,15167,574,12562,445,21021,23270,1374,13546,11900,21299,-1761
14.15.33.521277,2170,10294,14283,13064,24428,6681,522,445,13747,8950,21227,22196
14.15.33.557855,2184,10880,15778,15294,24353,564,11993,14037,17397,4947,-1623,20594
14.15.33.594874,13055,12081,24634,11546,527,16014,17205,23956,7281,13646,5317,2352
14.15.33.632341,22967,15542,546,11738,436,17860,24020,13418,7321,13287,17604,-1713
14.15.33.670466,8432,10656,11843,13157,24397,11189,497,465,14293,10202,22376,22136
14.15.33.707069,707,10496,13931,14606,24391,573,4784,12868,14259,5126,-1631,22115
14.15.33.744303,12425,11996,24628,11730,519,14466,16792,24134,5749,15028,8485,655
14.15.33.782478,23896,15433,545,11666,440,15560,24114,12754,8216,13299,15880,-1756
14.15.33.819066,18590,13655,8512,13086,23798,13502,490,543,14010,10290,22306,22067
14.15.33.857091,841,10602,15186,14367,24376,864,7666,12894,13428,6619,6159,22188
14.15.33.892456,8892,11385,18326,13741,12248,12943,17348,24232,8461,10930,-1197,9034
14.15.33.930125,14610,12968,16940,9306,473,15895,17646,23469,2272,16254,11639,2276
14.15.33.966311,24459,15369,570,12685,438,24185,12592,535,14368,11200,21958,-1735
14.15.34.004377,3417,10492,13292,13173,24419,7510,524,462,14178,9732,22296,22033
14.15.34.041527,4767,11075,17019,14777,24362,2161,15262,19808,18225,6937,-1623,11721
14.15.34.079420,14540,12630,22896,9715,504,16042,17253,23604,5977,13807,1784,2568
14.15.34.115042,19821,15216,1313,10853,448,15850,24441,13019,8306,13519,18563,-1735
14.15.34.151946,20681,13339,1051,13041,16164,23810,2524,528,14613,10415,22352,15778
14.15.34.189836,569,10685,16113,15219,24395,502,6397,11127,14200,5513,-1656,22080
14.15.34.228090,13510,12224,24645,11381,525,15506,16378,23730,6005,14707,6205,1878
14.15.34.265507,21831,15403,1108,11169,437,16324,23672,4710,10310,12177,16399,-1753
14.15.34.302955,13328,11799,9281,13138,22519,22936,3340,522,14481,11526,21936,-1040
14.15.34.338406,867,10249,13460,13167,24423,9103,504,2561,13746,10482,19737,22069
14.15.34.374913,7271,11370,19051,14668,22682,3447,17632,20876,18940,6232,-1647,19614
14.15.34.411761,13703,12190,22362,10235,506,14420,15583,24144,7047,13642,12616,991
14.15.34.449440,23901,15433,1268,11543,439,15110,24056,6942,9019,12590,14529,-1804
14.15.34.486793,10799,10960,12213,13120,24391,10972,493,4204,13933,9686,8572,22144
14.15.34.525069,8038,11237,18232,13747,9326,11554,15298,21955,14583,7821,-1210,12010
14.15.34.563542,14321,13230,16039,9296,482,14649,16169,24129,3647,15192,13649,1280
14.15.34.600118,24445,14848,730,12612,426,19623,14194,507,14723,10699,21302,-1780
14.15.34.638097,2493,10188,14128,13238,24403,11223,489,7044,13757,9919,13416,22157
14.15.34.674328,4990,12486,15369,14682,24370,9328,15333,15815,18493,6787,-1685,21524
14.15.34.712128,13662,12894,14449,9238,463,14409,19493,24002,3481,15692,13561,2439
14.15.34.749755,24254,15289,607,12735,430,19525,13980,488,14439,10952,21464,-1799
14.15.34.788688,929,9738,15456,13968,24380,1674,7553,13064,13450,6016,-1696,22058
14.15.34.827462,12509,12018,24619,11120,527,13536,16137,24173,10110,9156,-1610,5744
14.15.34.864135,15394,15444,4587,9528,479,19898,21590,23637,1454,14980,6915,-1824
14.15.34.901443,22030,13573,2870,13044,722,24496,6396,545,14885,10284,22404,20589
14.15.34.940235,1664,10541,16874,15462,24377,545,12804,16793,15212,5560,250,22103
14.15.34.977615,13154,11986,24656,11313,548,9432,15608,24096,7339,14491,-1595,1477
14.15.35.015087,19664,16599,574,11976,448,21224,22111,8268,7112,12752,21577,-1725
14.15.35.052689,13604,11246,8686,13175,23970,22484,1458,523,14607,10032,22403,16253
14.15.35.089452,576,9929,16325,14085,24428,508,10760,22098,14995,5381,-1659,22090
14.15.35.127740,13180,11995,24594,10336,523,14341,15501,24068,5353,15408,-861,-1105
14.15.35.166115,23835,15785,550,11733,434,14924,20473,2716,7609,12619,17095,-1713
14.15.35.202471,15055,13328,9799,12953,21492,18098,1739,491,14339,10187,22344,22034
14.15.35.240718,4708,10431,14314,15406,24349,868,15042,16343,16452,7801,-1552,14376
14.15.35.279748,13946,12748,17451,9241,455,16130,17490,23864,1306,15136,11959,-1311
14.15.35.316907,23282,15243,1174,12866,418,22911,9737,507,13550,11390,21242,-1779
14.15.35.354610,3707,10211,14579,13195,24416,6660,3655,10889,13524,8753,22284,22053
14.15.35.390799,5977,10220,15292,15304,24349,1240,13717,15020,16707,5381,-1652,22111
14.15.35.427420,12833,11830,23417,10635,497,14496,15101,24086,2948,16018,7496,2739
14.15.35.465872,20632,15327,532,11821,427,14586,21928,7066,7498,13317,14745,-1777
14.15.35.502121,15803,13427,9744,12992,12644,18472,2656,1838,14398,10090,22335,12592
14.15.35.539628,1251,11045,14947,13879,24379,480,10351,15032,13846,6012,3295,22209
14.15.35.575998,11305,11639,23981,12816,6025,11132,15832,19909,12914,10296,-1718,4139
14.15.35.614446,15930,14902,5158,10878,438,15937,22919,9624,5887,13718,15046,-1741
14.15.35.651248,20353,14453,5102,12984,1400,24474,7341,515,14679,10122,22391,22203
14.15.35.690018,2321,10476,15460,15116,24354,499,13923,15657,16714,5565,-1558,22221
14.15.35.727013,12557,11740,24573,12443,526,11792,15476,23029,9369,12498,-1724,2552
14.15.35.764908,18104,15365,531,11779,436,18372,21576,2901,11279,11582,22257,-1690
14.15.35.803792,8075,11069,12177,12916,24375,15303,806,2694,14176,10044,22402,18600
14.15.35.839723,2262,10507,15558,14695,24355,2182,12113,14623,14282,5320,-1666,22160
14.15.35.877040,12551,11836,24328,11887,510,13143,15470,23406,8607,12994,-932,5068
14.15.35.914123,15291,14703,780,11951,432,14866,20564,7465,8079,12539,15319,-1692
14.15.35.952772,13179,11464,12658,13142,24381,9753,1705,11712,13741,8865,20576,21992
14.15.35.991903,9799,11681,17228,14396,24357,7238,15210,15026,18291,6829,-1621,17073
14.15.36.029127,13857,11946,17928,10030,475,14161,15223,24054,5163,14902,5768,939
14.15.36.065628,20558,15186,532,12105,431,17713,13980,483,13461,11347,19097,-1772
14.15.36.104188,5826,10076,14497,13366,24402,7510,5150,13117,13145,8017,20004,22211
14.15.36.142735,11363,11419,21448,12903,2541,11932,14985,14618,14574,9718,-1564,9517
14.15.36.180132,14135,13734,7949,9918,441,14583,22143,8076,5070,13798,14767,-1684
14.15.36.217804,19498,14670,2555,13030,419,22246,8440,503,14613,10520,22278,2397
14.15.36.255784,1179,10126,14943,13879,24387,2482,7903,14200,13094,5624,-612,22137
14.15.36.293748,12741,15405,566,12824,419,23685,10502,510,14672,10471,22409,-1728
14.15.36.337754,3727,10375,12961,13122,24376,13308,520,16449,14147,9426,22377,22100
14.15.36.373550,4409,10787,14055,15019,24332,3378,13738,14902,16807,5497,-1671,22142
14.15.36.410831,13447,11789,22837,11728,509,16356,15356,15340,13426,10582,361,2194
14.15.36.448683,19543,15143,535,12219,427,16900,17998,1227,10290,12714,14413,-1802
14.15.36.486546,10619,11657,12481,13145,24346,11956,1591,9737,14076,9691,22127,22098
14.15.36.524613,8818,10884,15509,14766,24335,6687,14487,14565,18115,6557,-1536,18618
14.15.36.562303,13673,12754,17250,10044,477,14236,14643,24214,5340,15431,6579,2327
14.15.36.599019,20533,15013,1449,12125,428,17663,12226,475,14026,10778,20710,-1869
14.15.36.638318,3625,10260,14532,13647,24369,5216,8674,14595,13058,5465,2892,22138
14.15.36.675817,11437,11422,16784,13971,17032,10006,15084,10953,18139,7676,-1554,21195
14.15.36.711301,13365,11908,21629,11105,491,14145,14983,23274,9408,11391,-223,5140
14.15.36.747744,15800,14029,5950,9996,430,14551,20096,5932,6748,12628,14665,-1833
14.15.36.785780,13603,13131,10260,13084,14536,17096,2383,10375,14291,9798,22395,15521
14.15.36.822994,3310,10624,15088,15202,24331,2183,14437,14866,17923,5951,-1638,21131
14.15.36.861821,13735,12249,12950,9500,431,14787,23316,11651,2254,15190,13817,-1213
14.15.36.900881,20417,14840,2177,12883,414,22144,6450,1564,14736,10558,22305,1090
14.15.36.938775,729,10227,14752,13405,24397,5436,864,14565,13303,7903,11396,22083
14.15.36.976301,11785,11658,24620,11461,510,13841,16485,21364,8223,10921,-1602,4735
14.15.37.013385,14473,13675,10436,9538,449,16097,22816,12883,1034,15532,12923,-1848
14.15.37.051108,20619,14818,5995,12994,12110,22988,2031,6154,14661,10223,22442,22284
14.15.37.090985,6823,10754,15412,15445,24339,485,11704,14722,16751,5113,-1630,22141
14.15.37.127499,13127,11864,24620,11212,515,14307,16184,22220,5702,15042,6451,1620
14.15.37.165406,22352,15187,536,12389,422,16125,23556,2816,10274,12718,15425,-1757
14.15.37.202340,14666,11845,11570,13169,24362,14297,484,13688,13508,9819,22395,22181
14.15.37.240330,4373,10614,15111,15098,24352,975,11755,15222,17037,4790,-1648,22061
14.15.37.278001,13324,11607,23504,10682,517,14101,16866,20758,11148,8137,-1511,12139
14.15.37.312473,14122,11925,16876,9477,495,14945,16301,23632,2983,15919,6099,1750
14.15.37.348788,22610,15036,1046,10945,436,15813,23646,4349,9445,12959,17220,-1749
14.15.37.385729,15026,13963,10093,13156,24346,17921,536,4723,14345,10443,22425,20715
14.15.37.422620,598,10344,14832,14069,24402,2617,1577,13603,12981,6296,11607,22155
14.15.37.458364,9104,11108,17854,14028,23499,4475,15596,15723,17271,6324,-1581,15483
14.15.37.495797,14178,12525,14790,9206,468,14778,18740,24019,2393,15539,7532,1138
14.15.37.532088,22919,14980,541,11440,435,17153,22114,1210,12143,12422,18146,-1733
14.15.37.570546,5141,10530,14130,13138,24404,2941,3024,12613,13467,8114,14389,22093
14.15.37.609011,10498,11421,17686,14700,24370,14679,16131,24247,5927,13982,3913,676
14.15.37.649124,24125,15145,535,11744,431,15488,23403,8363,8453,13963,16396,-1814
14.15.37.685908,13324,12549,12194,13141,24361,15086,483,6620,14300,10560,22373,22099
14.15.37.722982,2008,10224,14903,15248,24332,1024,12965,14230,16039,4332,-1671,22077
14.15.37.761225,13206,11518,23074,10693,511,14663,16629,24052,5230,13600,4902,4168
14.15.37.799249,24463,14941,541,12462,445,17406,23113,3238,11985,13011,18822,-1782
14.15.37.836897,6347,10979,13243,13077,24424,10106,507,8925,14262,11050,22337,17841
14.15.37.873580,2800,10619,15017,15005,24384,508,7222,14650,14139,5366,-114,22204
14.15.37.909629,11983,11730,23995,12471,517,13514,16984,24241,9048,9974,-1627,3688
14.15.37.947920,19789,15254,1868,11053,440,15466,24423,13990,2771,16027,14489,-1755
14.15.37.984148,22109,14518,2003,12748,428,23655,8125,508,14755,11495,22345,-1777
14.15.38.020643,3221,10032,13984,13060,24415,3575,1083,11778,13396,8395,10156,22250
14.15.38.058789,10265,11449,19016,13349,18161,9072,16056,16870,15431,6854,-1583,15539
14.15.38.095529,14269,11861,17372,10040,496,14879,16431,23993,4914,14678,7346,-357
14.15.38.131510,20373,15520,1600,11192,438,15234,24418,6458,7750,13833,15951,-1709
14.15.38.169110,13253,11794,12175,13154,24355,14351,482,495,14771,10683,22367,10999
14.15.38.206621,4323,10553,15474,15103,24345,5225,15045,15844,16776,5255,-1641,22086
14.15.38.245438,14425,12247,14233,9296,476,15128,18938,23670,1987,16480,12878,-1534
14.15.38.283658,23177,15510,1116,12676,427,22858,13762,486,14124,12824,16564,-1717
14.15.38.318891,14843,12655,10637,13173,8119,20206,2901,507,14750,12508,22249,-1703
14.15.38.353896,3564,10639,13705,12915,24417,6242,502,10071,13645,11003,16940,22122
14.15.38.391820,9454,11490,21050,12331,525,12618,15730,18186,12928,6995,-1674,22119
14.15.38.429549,15131,13194,13923,9332,492,15199,18627,23989,2471,15411,6754,16878
14.15.38.464766,21473,15223,2338,10783,465,15141,24414,23468,1717,16203,14505,-1674
14.15.38.501386,18872,14280,8884,13064,5871,19540,1528,505,14597,10454,22318,21962
14.15.38.539604,1261,10342,14796,14804,24375,497,5033,15576,13724,5621,-1616,22163
14.15.38.575766,10796,11941,22961,12069,530,14106,16501,24115,8818,8834,-1684,4633
14.15.38.615099,23142,15607,888,11952,434,15296,24429,7004,7005,13961,16114,-1709
14.15.38.651850,15812,13169,10453,13157,427,21119,2473,2142,14621,11225,22400,6394
14.15.38.688897,551,10196,14548,13665,24392,1049,3981,12616,13160,7688,-1559,22174
14.15.38.727699,13580,11771,19874,10140,494,14884,18123,23925,1884,15935,9968,1147
14.15.38.765531,23910,15667,2229,11578,432,14915,24416,8491,6719,13916,15328,-1738
14.15.38.801432,17671,13878,11073,13080,24040,14713,485,1122,14384,10781,22434,-1742
14.15.38.838305,586,10215,14689,14844,24382,491,7302,8221,14438,5122,-1731,22112
14.15.38.876139,11915,11572,21921,13291,11625,10167,15769,16725,17612,5317,-1664,22045
14.15.38.911548,13918,11736,20245,10697,506,14826,17946,24064,2773,16083,11838,1041
14.15.38.949855,24288,15780,967,12519,441,16549,23829,1783,11393,13243,16363,-1692
14.15.38.986336,8817,11402,12766,13031,24387,14707,489,7179,13972,10693,22445,7457
14.15.39.023140,1842,10748,14805,15166,24349,1695,12269,15899,17498,4320,-1680,22090
14.15.39.061533,14008,11736,20840,10747,518,14629,17144,24238,7587,9601,603,16796
14.15.39.097901,21021,15586,831,11767,440,15081,24414,10074,5857,15421,15179,-1776
14.15.39.134381,20507,14450,9559,13053,15533,16519,487,475,14557,10561,22332,22123
14.15.39.172607,646,10369,14762,14142,24395,1992,2527,15558,13613,7247,5207,22209
14.15.39.208454,10009,11383,21532,13379,8440,11150,15815,18148,16392,5814,-1673,7914
14.15.39.246028,14467,12875,12455,9389,475,15124,17601,23784,2625,15578,7013,2073
14.15.39.281640,22363,15611,1176,12329,441,17867,21573,499,13337,12960,16635,-1686
14.15.39.318623,14812,12368,12013,13108,24350,16635,816,480,14428,10732,22398,15116
14.15.39.355379,592,10061,14494,14235,24391,2195,3906,12171,13293,8614,13257,22213
14.15.39.391298,9355,11365,15616,14491,24366,6627,14200,15461,18331,5011,-1645,19755
14.15.39.428368,13975,11695,14893,9624,478,15051,16800,24123,5257,14472,7326,2833
14.15.39.464530,19303,14818,3274,11832,437,14851,24405,10260,3792,14970,14736,-1741
14.15.39.500900,19477,14502,10166,12906,8512,22314,8833,500,14683,11094,22348,-1838
14.15.39.538218,780,10071,14136,13106,24407,4963,618,13560,13140,8587,7599,22083
14.15.39.575453,10941,11437,21588,12539,512,13312,16726,18188,14598,6044,-1685,3903
14.15.39.612379,15093,13198,11684,9441,477,15224,19320,22823,4132,15033,10640,3205
14.15.39.648538,24106,15899,2025,12404,440,19580,19576,488,13808,13146,16059,-1699
14.15.39.686574,5983,10481,13981,13027,24413,9533,499,10489,13827,10968,15590,22127
14.15.39.724090,6846,10971,15150,15062,24346,1729,13610,16105,18397,4855,-1594,22144
14.15.39.761199,13907,12016,21009,11299,515,14622,17046,24120,6188,12926,7667,6273
14.15.39.797913,21777,15549,3952,11813,470,15036,24407,3881,8311,13914,15579,-1703
14.15.39.835044,16194,13078,10328,13046,20343,16612,488,694,14406,10522,22441,11978
14.15.39.871724,545,9827,13738,13369,24393,3396,1207,13154,13065,7238,9307,22104
14.15.39.907610,8158,10829,15529,14269,24349,5409,14478,16828,18410,10892,3049,2655
14.15.39.947376,17803,15749,3633,11186,443,15065,24412,7096,7130,14815,14852,-1732
14.15.39.984838,16388,12143,11826,13093,19950,15467,483,2778,13951,10642,20356,22078
14.15.40.023506,5567,10777,14595,15155,24339,1416,11734,15562,15524,5519,-1622,22155
14.15.40.059245,12201,11754,20746,13287,22121,9867,15785,16336,16823,6561,-1617,11488
14.15.40.095403,14255,12506,16230,9569,480,14878,16977,24111,4059,15488,11589,3768
14.15.40.132484,24457,15560,2864,12449,435,16096,23424,2041,11778,13526,14556,-1707
14.15.40.168418,14638,13343,10739,13044,8773,16528,602,490,14665,10635,22322,9308
14.15.40.204745,532,10022,14466,13630,24394,4106,919,14404,12930,6742,-182,22090
14.15.40.242839,11710,11833,21216,12465,506,12960,17325,21764,9807,9524,583,20099
14.15.40.279875,15308,14344,8229,9973,464,15264,24046,23578,3092,16261,13466,-1385
14.15.40.315754,24468,15819,2046,12624,419,22640,22489,497,14561,11987,21275,-1468
14.15.40.354015,1339,9977,13700,13040,24412,8138,501,11113,13658,10934,20991,22157
14.15.40.390410,6520,10848,14721,15056,24344,1318,8784,16236,18085,4790,-1662,19873
14.15.40.427285,13446,11924,21376,11778,519,12910,16545,23145,9655,9531,-1031,2834
14.15.40.463048,14960,13504,10727,9882,444,14903,24375,19258,1991,15574,14874,-1846
14.15.40.500221,22121,15045,6072,12860,429,20450,22646,493,13199,12588,18025,-1831
14.15.40.536877,4044,10456,13309,13061,24409,10559,505,18954,13598,10243,13667,22038
14.15.40.574697,9868,11517,18013,13305,13086,12041,15868,18181,11566,8146,-8,3071
14.15.40.612847,14807,13625,10711,9716,450,14941,24176,18950,1983,15509,14385,19123
14.15.40.655451,921,10237,14423,13928,24369,1441,2168,14141,12786,7180,3279,22039
14.15.40.691622,10479,11325,18139,13424,7419,12861,16293,20397,9732,8303,1380,5064
14.15.40.729899,15448,13810,10092,9762,449,14964,23795,20373,1722,16386,14195,-1472
14.15.40.766503,22850,15279,4170,12594,509,21290,9738,496,14722,11485,22322,4941
14.15.40.804829,539,10185,14502,14702,24368,829,5757,14619,14872,5491,-1409,22253
14.15.40.842829,12123,11655,21421,12068,514,13358,16507,20599,9557,8874,4474,14675
14.15.40.880013,15864,14051,9022,9853,469,15226,24370,15644,1867,15813,14160,-1859
14.15.40.917503,18830,14942,8800,12928,8571,21483,9510,498,14755,10946,22427,1982
14.15.40.955509,1323,10300,14350,14749,24339,7172,13811,16158,17015,5186,-1609,22171
14.15.40.994126,14524,11821,20772,10670,478,14606,16841,24142,4462,14598,11584,-1949
14.15.41.031457,23327,15367,2209,12256,438,19548,23318,492,14037,12425,15675,-1707
14.15.41.069605,5662,10628,13560,13194,24380,13907,494,2409,14330,10631,22421,19862
14.15.41.105200,540,10046,14470,14361,24361,690,3541,15858,15735,4636,-1690,21964
14.15.41.143767,13839,11916,17092,9713,488,15056,20792,23982,3124,16460,13879,290
14.15.41.183329,23024,15217,5079,12799,439,20453,21169,495,13915,12212,15887,-1692
14.15.41.219006,10589,11823,12339,13058,24394,13418,489,5655,13973,10650,21590,22125
14.15.41.255693,1481,10171,14291,14442,24333,1397,9330,16410,17948,4646,-1641,22168
14.15.41.293048,13022,11805,21125,11910,820,14201,17445,24234,8432,9309,4107,3119
14.15.41.329611,15029,13459,10261,10034,444,14862,24397,6729,6904,14079,14760,-1736
14.15.41.367714,17322,14187,10484,13058,12000,19554,3306,490,14697,11148,22413,-1650
14.15.41.404168,967,9802,14336,14211,24384,1723,3028,15848,13989,6020,933,22126
14.15.41.442330,12374,11329,20440,12380,513,13654,16965,23684,8950,10545,3126,4638
14.15.41.480138,16852,14613,7452,10190,438,14753,24384,18383,1712,15970,13965,-1025
14.15.41.515849,24051,15379,3518,12621,426,21303,19345,492,14350,11601,21527,-1830
14.15.41.554018,1550,9993,13717,12980,24407,8289,491,11933,13197,8576,10783,22133
14.15.41.592302,11988,11756,20745,12243,570,13785,16508,20477,10454,7813,-900,5076
14.15.41.629939,15715,13949,9499,9644,457,14998,22359,21836,1826,16406,13603,-287
14.15.41.666232,22665,15557,4818,12618,430,19425,21550,480,13983,12120,17630,-1655
14.15.41.703647,1763,10136,14535,13735,24390,4379,726,14395,12789,8595,7851,22176
14.15.41.740311,7831,10870,14958,14587,24348,3389,11339,15610,16778,4691,-1642,22131
14.15.41.776455,12853,11871,18988,10529,494,14629,16916,24129,4526,14604,11210,6043
14.15.41.814385,21995,15359,4317,11898,445,16018,24408,507,8399,13631,14698,-1763
14.15.41.852037,11523,12276,12226,13237,24382,14252,481,6338,14225,10527,22065,22039
14.15.41.889510,4575,10040,14612,15171,24364,1473,4249,15453,14361,5837,-1662,22139
14.15.41.925488,11971,11516,21351,12877,852,12096,15861,18418,11674,8277,-1330,22150
14.15.41.961834,14440,11703,13554,9553,470,15062,24160,16010,1706,16209,14280,-1900
14.15.41.999379,24112,15643,3040,12450,425,21541,17038,501,14366,11852,22046,-1838
14.15.42.036934,1232,9941,13824,13010,24416,7705,499,13705,13064,10095,12038,22092
14.15.42.074491,9787,11344,17082,14046,24375,9620,15567,15930,14784,6890,-1675,10670
14.15.42.112294,13580,14072,8863,9869,429,14829,24406,12934,3859,14820,16454,-1868
14.15.42.150848,19180,13352,10185,12849,623,18381,4334,14646,12951,7842,2782,22074
14.15.42.191166,8714,11849,18056,14044,24391,6365,12131,15802,17347,5897,-1582,22137
14.15.42.228572,14957,13915,11668,9506,464,14778,23731,20040,1853,16629,13722,-1812
14.15.42.264834,24463,15785,3087,11454,443,14740,24419,4697,5333,14490,16797,-1798
14.15.42.300591,21504,13943,8751,12952,8685,19006,7377,515,14774,12074,22582,2353
14.15.42.338685,552,10770,14454,14295,24403,1455,2049,15355,13625,5726,-1654,22145
14.15.42.374873,10558,11591,18995,13059,15120,10097,14476,16889,15425,5894,-1668,22050
14.15.42.412216,14936,14159,9987,9612,479,15081,24382,17392,3971,15641,18443,-1736
14.15.42.450066,22213,14698,5657,12858,421,18141,4354,521,14552,10892,22325,-1803
14.15.42.487885,560,9951,14498,14066,24406,1637,1881,15319,13518,5668,736,22063
14.15.42.525197,11399,11511,20517,13058,11747,13140,16676,20909,10535,7328,-1639,21416
14.15.42.563045,16734,14999,6872,10644,449,14964,24429,12722,3826,15021,19656,-1808
14.15.42.600938,17259,12944,11899,13067,22071,17685,568,1324,14298,10688,22345,10779
14.15.42.639505,4030,11046,15505,14638,24355,6255,11694,16401,17775,4571,-1534,22177
14.15.42.676128,12910,11805,22130,12634,10830,11644,14916,17744,13240,7414,-1619,21478
14.15.42.712568,15366,14415,7351,10260,452,14780,24425,11329,4376,14746,20162,-1761
14.15.42.751496,13230,11870,12314,13027,18128,16537,1046,1236,14452,10608,22378,-1787
14.15.42.787693,555,10135,14454,13614,24426,6928,517,11264,13647,10644,22358,22050
14.15.42.823084,6017,10982,15497,14828,24361,6543,13626,16251,16255,6662,-1623,871
14.15.42.861915,14594,12980,12053,9523,446,14761,22994,20267,1794,15880,14305,-1664
14.15.42.899559,22870,15147,7118,12802,436,21083,12003,510,14438,11721,22232,-1724
14.15.42.936370,2655,10159,14016,13261,24418,8136,506,13045,13433,9104,21321,22099
14.15.42.973850,9096,11289,15691,14699,24345,4670,11129,16306,18166,4952,-1512,22176
14.15.43.009970,13532,11887,20821,11103,517,14413,17093,24183,6114,13668,2613,-829
14.15.43.047222,22049,15127,4150,11865,434,14692,24425,6568,8847,13833,19244,-1709
14.15.43.083638,19020,14470,12397,13087,14534,16869,489,4369,14110,10598,22471,-720
14.15.43.121178,553,10210,14396,13684,24425,6082,501,14536,12923,8140,18092,22137
14.15.43.157199,9252,11224,18274,13902,23448,7883,13415,15421,17662,5094,-1520,22157
14.15.43.194230,13907,11936,15133,9878,501,14518,16988,24243,7517,12169,839,4771
14.15.43.231022,23889,15413,3083,12189,446,14952,24416,7104,6402,14259,18738,-1736
14.15.43.267510,16082,13262,11652,13086,7349,18937,3493,1399,14410,10750,22447,15076
14.15.43.305225,1343,10403,14207,15086,24350,4252,11205,15542,18113,5088,-1548,22178
14.15.43.343795,13568,12090,16621,10149,497,14784,17690,24216,5121,14546,7948,3402
14.15.43.380738,22996,15471,3168,12233,436,16646,23126,791,13055,12545,20094,-1771
14.15.43.419271,4496,11223,12990,13060,24394,11007,510,13682,13492,10494,22460,20342
14.15.43.455347,1766,10660,14103,15014,24343,2192,6003,15400,15840,4644,-1645,22152
14.15.43.491668,11893,11675,20283,12612,522,12944,16068,16627,10295,8379,-1603,20919
14.15.43.528630,14678,13669,8411,10428,462,14789,24328,15057,2113,16282,14395,-1186
14.15.43.565928,23286,15319,6229,12800,421,20564,17728,506,14603,11539,22272,-1882
14.15.43.603919,541,10794,14578,14558,24336,5117,9387,18102,18154,5341,-1581,22184
14.15.43.642814,13159,11780,20548,12470,512,13448,15950,20138,9484,10972,-1086,12796
14.15.43.679907,18728,15160,5141,10923,443,14661,24196,12068,1823,15958,14733,-1774
14.15.43.715450,24210,15486,4257,12709,436,20555,19914,489,14289,11740,22322,9068
14.15.43.753663,553,10209,14007,13803,24394,4078,837,15467,12895,6995,851,22107
14.15.43.791584,11766,11573,19332,12800,4217,12976,15916,18452,9741,10354,-559,2077
14.15.43.829614,18248,14715,5542,11500,439,14705,24408,6946,6797,13973,16512,-1799
14.15.43.867387,15677,13769,10811,12927,430,20198,6815,6446,14540,11201,22348,-1838
14.15.43.904086,545,10319,14391,13970,24390,2406,4536,16507,14617,4864,-1592,19381
14.15.43.944289,14158,11832,15164,9858,497,14722,22595,23125,2446,16164,8129,-1213
14.15.43.981120,24037,15220,4063,11989,447,15621,24412,826,11516,13058,21708,-1735
14.15.44.018118,11420,12009,13228,13095,24412,10018,511,10635,13990,10530,22423,18197
14.15.44.054367,639,10257,15313,14787,24342,7474,11480,16056,18083,5263,-1634,14388
14.15.44.094357,14263,11891,14816,9663,474,14694,18809,22239,2929,16278,10645,1904
14.15.44.132353,22883,15304,5064,12794,458,19681,5288,1098,14642,10826,22364,845
14.15.44.170142,872,10245,14072,13162,24412,5800,481,15329,12926,8178,9978,22258
14.15.44.207390,10582,11302,16618,14492,24368,6807,10691,15916,18281,5147,-1645,16571
14.15.44.244019,14069,11898,13483,9503,473,14786,22076,19478,1995,16486,12775,-1577
14.15.44.283160,18909,15093,8666,12851,7692,19935,14028,1676,14295,10983,22472,12005
14.15.44.320465,674,10318,14088,13109,24415,4459,500,15963,12950,7259,7515,22104
14.15.44.357968,11589,11496,17540,13941,24356,8342,13075,15905,17365,5720,-1634,15612
14.15.44.393644,13954,11582,16204,10232,508,14329,17003,24237,6577,13255,-1709,1712
14.15.44.430512,22419,15033,3603,11557,440,14560,24413,2917,9641,13885,22270,-1685
14.15.44.467813,12690,12531,12848,13062,24373,12642,493,11245,13901,10645,22319,22157
14.15.44.505646,5744,10755,14288,15119,24341,6824,11601,15966,18045,4796,-1594,19693
14.15.44.543519,13809,11658,16451,9823,488,14444,16794,24138,4396,15205,4308,2510
14.15.44.581431,23879,15358,3548,12297,437,15899,24405,569,11831,12903,22219,-1745
14.15.44.618674,7172,10852,13681,13035,24417,7140,488,14444,13278,8045,8857,22164
14.15.44.658306,12289,11611,20319,12897,16603,11712,15750,16515,13915,6119,-1520,11377
14.15.44.694307,14122,11638,14213,9612,469,14676,19289,21313,2980,15933,6537,1944
14.15.44.731146,22930,15268,4168,12492,435,15770,24413,1441,11270,13123,22166,-1773
14.15.44.768014,10859,12057,12783,12995,23529,13893,496,10421,14201,10425,22347,6904
14.15.44.804349,2215,10433,14211,13891,24387,3415,5743,15003,13708,4797,-1598,22163
14.15.44.843000,13626,11769,17164,10881,511,14301,17056,24238,6219,12992,-1564,10726
14.15.44.878957,15287,14430,8158,10929,447,14432,24402,9353,4364,15101,20595,-1787
14.15.44.917000,15486,13403,12236,13014,16803,15435,494,9902,12946,5285,-1298,22217
14.15.44.957811,11807,11621,18971,13175,17233,10465,14403,16318,14497,6675,-1603,10779
14.15.44.993938,14001,11966,11872,9897,451,14601,24393,12863,3070,15794,19382,-1823
14.15.45.032916,18146,14943,9565,12941,426,19963,7929,513,14415,11885,22345,-1672
14.15.45.068795,6806,10827,13633,12999,24413,11590,503,12423,13678,10640,22367,22133
14.15.45.105715,7588,10811,14144,14814,24343,5572,10862,15391,17648,4869,-1656,22024
14.15.45.143968,13982,12090,14194,9883,449,14472,24413,4766,7792,13975,21134,-1699
14.15.45.183887,13972,13278,11069,13000,21993,13916,495,3639,14208,10371,22272,21599
14.15.45.221480,4486,10725,14215,14733,24369,3291,3387,16303,14462,4374,-1634,20805
14.15.45.259099,13181,11908,18846,11622,518,14322,17071,24218,6149,12744,-1634,3689
14.15.45.295569,15271,13917,8340,10388,441,14586,24397,9430,3797,15381,19343,-1823
14.15.45.332255,19856,14768,7081,12848,421,19734,8259,1116,14488,10859,22370,3916
14.15.45.369872,2814,10574,13951,13231,24405,4104,514,16213,13180,8635,21912,22109
14.15.45.407195,11326,11559,17181,13532,24384,10781,14715,15552,16333,5578,-1479,8245
14.15.45.442846,13407,12064,16979,10282,479,14614,19385,23570,4239,16034,10622,939
14.15.45.480594,21556,14962,4538,12444,432,18863,23767,498,13757,12812,21707,-1773
14.15.45.519981,2525,10544,13947,13095,24409,7777,499,15745,13078,9632,19354,22077
14.15.45.556266,9534,11450,16615,14025,24360,8724,13461,15645,17628,5019,-1603,8646
14.15.45.593653,13834,12130,15566,10199,494,14565,18724,18636,3440,16716,11294,1969
14.15.45.630250,20877,14953,4761,11768,438,15083,24405,515,11602,13156,20662,-1804
14.15.45.668209,9049,11279,13487,13009,24419,11653,499,14326,13766,10699,22432,22169
14.15.45.704473,3974,10626,14234,14066,24394,3549,1231,16344,12978,6911,2168,22172
14.15.45.740427,11170,11585,19364,12437,518,13714,16025,23486,8252,11481,74,21939
14.15.45.779644,18636,14428,5865,11642,432,17728,23191,493,13342,13009,19403,-1651
14.15.45.817561,11692,12717,12226,13116,12087,15854,493,8921,14249,10657,22366,22064
14.15.45.854840,5033,10860,14104,14840,24353,9467,13871,15678,16138,5377,-1591,13511
14.15.45.893192,13740,11813,17376,10688,520,14031,16803,23424,8625,10327,-1555,3750
14.15.45.928777,15406,14022,6630,10594,439,14651,24341,16230,2139,16520,16466,-602
14.15.45.965304,20755,15199,6909,12884,426,20734,11590,648,14789,11446,22329,2994
14.15.46.003428,1518,10456,14208,14634,24382,3026,473,15118,13382,7250,9135,22169
14.15.46.039497,9296,11252,15780,14087,24373,7729,13763,15235,18197,5427,-1639,22072
14.15.46.077481,14121,12160,10953,9724,447,14720,24380,14640,1091,16428,15727,-1258
14.15.46.115966,18435,15080,9526,12894,3223,20738,18269,502,14165,12226,22256,-1809
14.15.46.152554,2177,10573,13897,13132,24424,6005,501,15221,13224,8516,17897,22084
14.15.46.189909,10190,11235,15606,14175,19530,10492,14502,17133,11251,8111,-1619,2814
14.15.46.228657,15582,13603,8486,9774,439,14704,23643,16926,1298,16477,15987,-819
14.15.46.264883,22266,15459,5884,12619,425,19645,21840,501,14109,12596,20038,-1723
14.15.46.301396,8528,11436,13193,13106,24350,13814,497,10854,14315,10695,22481,20490
14.15.46.337096,1398,10638,13311,14359,24385,4128,481,15758,13153,8396,5005,22078
14.15.46.374120,11678,11474,20415,12615,520,13485,16044,17918,11154,8443,-1703,5278
14.15.46.411556,14591,12776,11430,9598,455,14707,23601,14130,1008,16091,15277,-431
14.15.46.447962,23086,15385,3403,12386,419,16438,24388,712,11002,14041,18038,-1701
14.15.46.484429,9745,12907,12939,13090,24340,14059,496,7255,14616,10569,22292,22003
14.15.46.521139,3588,10575,14324,15353,24351,2362,3168,15976,15077,4930,-1615,22075
14.15.46.559071,13449,11665,19056,11252,513,14330,16311,23198,8616,10676,2624,1981
14.15.46.595675,17192,13797,8848,10251,438,14619,24399,8719,3517,14883,17690,-1796
14.15.46.632438,18889,15419,8577,12896,6735,20421,9470,1726,15005,11522,22376,-1730
14.15.46.669112,2688,10603,13935,13155,24416,6278,497,15455,13573,9857,15744,22018
14.15.46.706398,10091,11175,16405,14171,22735,6593,13551,15383,15727,6393,-1616,9042
14.15.46.744349,14038,12007,13188,9404,466,14764,21812,16166,2370,14877,11005,2468
14.15.46.781340,22571,15442,5019,12660,7541,18983,22590,498,14535,12024,22284,-1746
14.15.46.818167,6754,11565,12919,13136,24398,11471,508,14457,14134,10704,22263,22076
14.15.46.855463,7873,11048,14667,15292,24335,5409,9451,16053,16837,4564,-1576,22213
14.15.46.891188,12356,11707,20298,12325,516,14034,16606,20750,8331,10857,2667,5517
14.15.46.928349,15275,12973,10149,9636,452,15344,24386,10528,1452,15307,17193,-1843
14.15.46.965336,20197,15466,5926,12759,3836,19495,21924,502,13659,12665,18927,-1631
14.15.47.001397,7141,11078,12631,13152,24407,9956,499,13291,14178,10616,22394,22160
14.15.47.037825,4401,10856,14977,15203,24349,7277,11475,15924,18657,6014,-1611,11003
14.15.47.077238,14017,11623,12769,9455,448,14426,24147,12827,1545,16491,19174,-1096
14.15.47.115293,19278,14946,9835,12909,7889,20164,12562,657,14852,11034,22341,-1738
14.15.47.152594,2581,10485,13932,13404,24411,3849,1377,15962,13225,5770,-1672,22128
14.15.47.191031,12368,11588,19340,12580,521,13659,15636,21938,9929,8663,-1611,15003
14.15.47.227976,14735,13061,9891,9999,442,14375,24411,5705,4943,15014,20253,-1708
14.15.47.266632,13928,13955,11939,13029,24343,14264,491,11261,14376,10499,22272,21982
14.15.47.305050,7616,10822,14092,14989,24276,7352,9985,15779,17615,4515,-1600,21772
14.15.47.342094,13261,11712,16151,9675,437,14455,24401,6630,3471,15825,19052,-1771
14.15.47.382463,17006,14936,9967,12973,23292,17472,837,2622,14475,10797,22326,14879
14.15.47.420294,3117,10617,14185,14841,24353,3715,8531,15889,17148,4348,-1527,22200
14.15.47.457965,12702,11767,20262,11675,514,14086,17092,24226,5473,15183,4743,1712
14.15.47.496403,21184,15085,4187,12352,972,18746,21236,486,13724,12480,19656,-1787
14.15.47.534237,9353,12590,12877,13118,24407,11385,497,12962,14201,10637,22338,22040
14.15.47.571702,7908,10882,14220,15087,24370,3407,6242,15814,15467,4493,-1655,22070
14.15.47.608572,13173,11647,18676,10820,509,14546,17013,22339,3692,16136,14127,1836
14.15.47.647095,22377,15144,4120,12174,426,15597,24406,2048,8841,14503,18550,-1776
14.15.47.683294,13529,14124,10833,12999,19356,19810,16294,498,13557,13174,18426,-1652
14.15.47.717110,11395,13355,12660,13063,24408,10406,507,14592,13834,10258,22125,22174
14.15.47.755022,7799,11013,14575,15134,23481,5946,8732,15628,18421,4727,-1582,21472
14.15.47.792304,13469,11651,18842,11484,516,13902,16199,20820,8734,10639,1038,2692
14.15.47.827847,14733,12579,9923,9512,440,14455,24388,13881,1021,16483,16651,256
14.15.47.864077,22331,15359,4304,12233,422,14947,24404,3435,7676,14811,18271,-1699
14.15.47.899796,13994,14051,11644,13047,23342,18555,5971,1987,14907,11046,22355,-1664
14.15.47.936029,1847,10412,14233,13670,24413,5781,490,15779,13100,6855,-1196,22133
14.15.47.973719,11932,11630,20760,11483,516,13826,16392,20220,9640,9973,-1606,21242
14.15.48.010190,14119,11747,14061,9347,494,14711,22391,14535,1287,16194,11091,3265
14.15.48.046597,22795,15292,3066,12378,559,19007,24143,500,13281,12610,20136,-1804
14.15.48.084292,7524,11581,13299,13054,24405,12614,499,12489,14176,10566,22186,22068
14.15.48.121966,9075,11026,14861,14870,24337,6016,11571,15098,18443,5116,-1614,16861
14.15.48.159329,13848,11533,14827,9304,464,14342,17514,22283,3189,16653,15025,806
14.15.48.196678,22812,15046,2995,12033,515,16915,24398,503,13718,12758,20816,-1829
14.15.48.234753,5013,11413,13482,13064,24411,6810,504,15016,13422,9489,2549,22109
14.15.48.273360,11611,11411,19888,13246,10201,10973,14794,15260,17464,5373,-1556,17106
14.15.48.309010,13455,11974,13206,9374,467,14590,22395,15124,964,16821,15156,1509
14.15.48.347212,22552,15181,1911,12521,7816,18152,24392,597,12799,12951,18326,-1695
14.15.48.383279,12674,12654,12844,13102,24401,10509,508,14663,13956,10605,22463,22191
14.15.48.419980,1889,10551,14366,14131,24368,3482,9654,15718,17916,4275,-1626,22129
14.15.48.458015,12935,11812,21101,11433,522,13822,16366,20216,9202,9143,-1390,16640
14.15.48.494439,15147,13642,8559,9627,452,14608,24397,10651,3093,15072,17505,-1873
14.15.48.531058,21677,15219,3842,12693,12047,19909,13398,1033,14778,11306,22348,-1732
14.15.48.567697,6601,11033,13808,13158,24414,8310,498,15764,13521,9236,9037,22096
14.15.48.606110,10835,11486,18318,13017,514,14112,16901,22585,7846,9748,447,1637
14.15.48.644419,15030,13853,3511,11764,427,14386,24411,8632,1614,15839,17382,-1658
14.15.48.681399,19654,15043,10147,13040,22115,19463,10456,741,14794,11315,22324,-1018
14.15.48.718253,3969,11125,13994,13119,24408,8968,510,15201,13627,10748,21716,22103
14.15.48.755015,8755,11178,16225,14477,8809,9983,13073,16027,13571,7067,-1660,19970
14.15.48.794011,14401,12397,10485,10111,445,14388,24391,9079,3309,14803,17659,-1779
14.15.48.831499,19043,14953,9848,13096,21339,17448,1636,7863,14528,10706,22381,9661
14.15.48.869802,2660,10570,14224,14908,24355,3985,2568,15858,14449,4584,-1613,22207
14.15.48.907218,12350,11562,20205,12410,523,13743,16562,19741,12512,8064,-1652,5259
14.15.48.943493,14050,11905,9698,9587,447,14379,23457,13713,1315,16111,18281,-1814
14.15.48.982002,16915,15143,8889,12846,18583,19306,8818,1169,14906,11025,22302,8176
14.15.49.019385,2146,10492,14257,15086,24350,3908,5543,15881,15938,4278,-1613,22169
14.15.49.057766,12989,11747,19051,11752,526,14039,16962,22523,8159,11059,-1054,14662
14.15.49.094058,14616,12635,11618,9533,455,14413,22464,15498,969,16875,16603,-577
14.15.49.130878,20767,15340,5465,12855,15721,19403,15737,559,14373,12414,22090,-1693
14.15.49.167269,7966,11692,12972,13055,24403,10482,506,14686,13573,9802,15452,22107
14.15.49.205292,9893,11092,14761,15159,24353,4318,7004,15588,15110,4513,-1667,22113
14.15.49.241382,13054,11611,16846,10518,494,14163,16707,22655,4984,13515,2553,-260
14.15.49.278793,19797,14498,5081,11172,743,14666,24415,5825,6486,15120,21867,-1732
14.15.49.315466,15931,14678,9127,12869,21827,18566,6870,2137,14679,11353,22318,3119
14.15.49.352312,2549,10529,14265,13960,24397,5558,688,15561,13280,7663,16774,22151
14.15.49.388069,9000,10997,14327,15087,24356,6225,8032,15976,17451,4387,-1606,22186
14.15.49.423993,12643,11775,19895,11410,519,13958,16842,24193,6285,11960,-712,3201
14.15.49.462386,20397,15002,4274,11980,415,14141,24404,7411,2945,16288,19954,-1832
14.15.49.498161,17506,14774,6954,12712,13864,18874,18647,501,14414,12214,22315,-1678
14.15.49.534048,7426,11722,13962,13003,24404,9931,503,14883,13451,9640,22252,22122
14.15.49.570961,8290,11132,14833,14749,24348,5307,7285,16037,13295,5582,-1646,22131
14.15.49.607111,12465,11957,19095,11631,513,14176,16956,24210,5874,14850,9757,3510
14.15.49.645974,20506,14730,4953,11822,688,14439,24408,1457,10049,13700,18502,-1806
14.15.49.682789,12589,12145,12606,13044,24351,12811,495,12733,13739,10595,22249,22109
14.15.49.721104,8978,11171,14027,14798,24344,5318,7734,15891,16614,4234,-1643,21192
14.15.49.757202,12669,11985,17468,10799,493,14167,16424,24177,7315,12808,4327,2670
14.15.49.794575,16168,14298,6116,11565,431,14095,24393,9345,4161,15350,19453,-1795
14.15.49.831497,16432,14263,7866,12760,20024,17975,12446,495,14097,11847,22249,-1759
14.15.49.867596,6523,11014,13634,12986,24401,8366,489,15111,13249,10435,22247,22115
14.15.49.904358,9500,11418,14059,14516,24345,5907,8754,15566,16545,4899,-1628,22118
14.15.49.941618,13431,11892,16267,11068,511,13930,16643,22801,7253,13828,6334,5208
14.15.49.978855,18569,14102,6344,12218,4152,16974,24122,773,12322,12311,19788,-1745
14.15.50.015754,13029,13031,12318,12966,24327,14949,468,9505,13559,10563,22380,17234
14.15.50.052921,6418,11345,13899,14063,24383,5386,1800,16308,12763,6713,-1677,22198
14.15.50.089178,11745,11761,17042,12822,498,11207,14676,16049,15448,6483,-1628,12309
14.15.50.124981,13278,11974,16320,11213,506,13727,17182,24203,7918,11392,-1223,5594
14.15.50.160237,14025,13216,10605,10918,438,14180,24378,14282,4511,15133,18385,1743
14.15.50.197095,17656,14290,8439,12606,16686,18265,21366,503,13330,11690,22225,-1773
14.15.50.233607,8527,11323,13809,13199,24403,7479,507,15471,12809,9003,17600,22102
14.15.50.271093,10270,11429,13827,14264,24360,5315,989,16567,14346,5547,-1652,22092
14.15.50.307244,12791,11979,17248,11009,506,14282,19016,23980,6415,14255,8157,6480
14.15.50.344602,16035,13708,7697,11124,432,14385,24364,14048,4669,15085,18965,-1273
14.15.50.380739,16745,13952,8675,12756,18951,19290,17761,499,13621,11211,22330,6713
14.15.50.418736,6136,11164,14126,13660,24367,4016,445,16863,13497,6148,-1708,21332
14.15.50.456986,12543,11974,19516,11871,521,13299,17292,23660,10006,10094,-1550,6668
14.15.50.493815,14413,13245,10155,10646,446,14441,24343,13506,4656,15010,17221,1936
14.15.50.530144,18095,14177,6122,12704,18904,19117,19773,507,13682,11292,22351,-1728
14.15.50.568476,5981,11131,14104,13707,24366,4061,453,17100,14172,5905,-1616,22196
14.15.50.606970,12682,12075,18975,11434,515,13942,18242,24151,8014,12446,8149,5426
14.15.50.644997,17379,14120,4180,12391,8531,16634,24372,484,13402,11580,22213,-1685
14.15.50.683106,10176,12397,12261,12957,24334,17004,497,4298,13414,10717,22448,15675
14.15.50.718600,6070,11116,13866,13366,24400,5250,489,16638,12603,8215,449,22027
14.15.50.755235,11407,11674,16273,13417,10976,10175,11008,16121,15726,6653,-1524,15797
14.15.50.791709,13234,12058,15933,10962,486,14463,19195,24038,5375,14549,15356,3500
14.15.50.829280,18786,14336,4279,12293,7749,16660,24374,484,12741,12146,21907,-1252
14.15.50.867564,6842,11393,13699,12947,24410,7434,504,16495,12457,8797,3533,22172
14.15.50.904866,11003,11460,16140,13112,1682,11313,13128,16356,14199,7171,-1573,20009
14.15.50.942682,13664,12558,10095,10507,434,14389,24368,9661,5472,14824,18954,101
14.15.50.979652,18761,11512,18417,12619,500,11987,14615,20844,12796,6873,-1615,9647
14.15.51.026532,14121,13024,10719,10461,438,14652,24331,17127,4374,15702,18565,1827
14.15.51.063339,18211,14572,7143,12633,12573,19569,23657,501,13662,11643,21230,-1724
14.15.51.100180,8241,11820,13100,12936,24361,14095,465,4728,13603,10551,22328,22054
14.15.51.136269,7080,11285,13607,14259,24360,3456,448,16951,12882,7345,-1485,22145
14.15.51.172569,12019,11881,19446,12758,509,13176,16982,22011,10329,9413,960,5840
14.15.51.209764,13925,12687,10761,10347,455,14342,24211,19774,4052,15879,18040,-494
14.15.51.247151,17256,14703,8747,12852,20033,19545,24158,504,13573,12229,20535,-1765
14.15.51.282976,9715,12615,12895,12945,24417,10712,509,14821,13180,10635,18458,22121
14.15.51.321139,10677,11405,16261,13631,12057,9376,12880,15486,16405,5550,-1594,17606
14.15.51.357880,13264,11702,15440,10559,485,14238,18522,23951,5400,15392,16253,2670
14.15.51.396006,19333,14748,4634,12409,6883,16258,24365,477,13197,12732,18021,-1647
14.15.51.432961,8978,11558,13455,12880,24375,11700,507,14622,13360,10592,22372,22136
14.15.51.469636,7633,10972,13975,14381,24344,6271,3419,16102,16251,5101,-1526,19874
14.15.51.506995,12876,11815,18638,11080,501,13949,18090,24061,4782,16073,15950,3830
14.15.51.545123,18659,14484,4687,12526,10021,16633,24366,465,12732,13456,16430,-1812
14.15.51.582482,10703,13013,12493,13042,24396,11842,497,14344,13404,10118,20650,22060
14.15.51.620399,9561,10881,17243,14404,8040,12206,14741,14936,16668,4951,-1681,18568
14.15.51.658793,13629,11229,14770,10283,483,14127,18194,20707,5763,14773,13369,5287
14.15.51.694773,18403,14746,5927,12125,14331,18488,24357,486,13791,12300,21692,-1818
14.15.51.733722,6651,11217,13789,13995,24367,5304,920,15769,13632,3772,-1676,22132
14.15.51.773415,12848,11652,18452,12269,505,12982,15602,15953,11968,7635,2186,3068
14.15.51.808967,13608,12087,10382,10277,425,14124,24369,9784,3145,16513,17091,188
14.15.51.847151,16514,15652,10046,12820,22898,16882,6326,6922,14344,10635,22268,15051
14.15.51.884908,4966,10366,13769,13396,24377,8247,470,15067,13058,8584,9211,22096
14.15.51.920333,9425,11001,14525,13977,3710,10969,14175,14392,14816,5143,-1542,11688
14.15.51.958209,13487,11162,14997,10315,475,14069,16707,19073,5279,16156,14670,2819
14.15.51.994037,16784,14349,8070,10718,421,14095,24367,9249,3316,17551,16379,-1541
14.15.52.030232,17567,15182,10725,12949,23367,15248,2278,10089,14325,10985,22414,12602
14.15.52.067970,4279,10485,14676,13110,24379,7315,471,15250,13076,7933,-818,22158
14.15.52.104966,11463,11442,16835,13518,2489,11658,14722,14351,16765,3910,-1599,22085
14.15.52.141447,13488,11845,13052,9727,447,14096,18393,18500,4318,16342,15942,4921
14.15.52.177719,18883,14933,5895,12124,11345,16330,23276,2293,14439,11588,21829,-1774
14.15.52.216710,6406,11114,12980,12924,24384,11470,479,14064,13676,10904,18272,22058
14.15.52.252918,7407,11014,14098,14493,16951,8834,13321,14821,14801,6073,1006,20900
14.15.52.291831,13606,12114,12971,9695,455,14142,19109,19424,4215,16246,15569,5237
14.15.52.328079,19901,14770,6293,11848,5335,14902,24367,1288,13553,13343,15857,-1746
14.15.52.365997,9058,12042,12879,13054,24351,12974,480,11004,14278,10934,22421,5259
14.15.52.401246,3809,10644,13870,14121,24373,6491,475,15944,12980,9057,6714,22140
14.15.52.437188,9936,11171,14942,13575,2600,11372,14976,15141,14756,6165,531,6979
14.15.52.475269,13724,12495,14116,9718,462,14062,16585,20011,4002,15079,15334,2672
14.15.52.511579,20798,14835,5246,12389,10691,15386,24388,5824,7734,13885,14784,-1724
14.15.52.547611,15309,13969,10595,12855,23750,16541,2095,9269,14581,10946,22375,1421
14.15.52.585133,4476,10692,14071,14770,1381,10907,13269,14899,17653,4893,-1663,22039
14.15.52.624952,13690,12283,14133,9675,481,14131,20113,19862,3587,16625,15479,2649
14.15.52.661983,20884,14806,5153,12481,16295,18201,18762,554,14308,11859,22317,-1747
14.15.52.700385,4065,10586,13839,13462,24371,5671,1575,15648,13107,5603,-1630,22157
14.15.52.738971,12186,11708,18114,11977,499,13232,16672,19329,9448,9900,11844,3495
14.15.52.776739,15947,13829,9219,9924,423,14079,24384,7650,2952,15668,15589,-1814
14.15.52.813372,17863,14513,7836,12746,15115,17002,21821,478,13855,12449,16977,-1771
14.15.52.848531,11581,11791,12759,13055,24351,12411,482,14664,13798,10624,15513,22036
14.15.52.885966,6618,10909,14070,14985,24340,6123,8657,15460,17606,4203,-1638,18427
14.15.52.923548,13136,11899,18598,11468,507,14042,15721,22245,10202,7513,5276,3539
14.15.52.959767,15618,13919,8094,10404,431,14003,24381,8807,2811,16450,15987,-1839
