18:12:44.061918, 303.0, 307.0, 243.0, 302.0, 302.0, 318.0, 324.0, 302.0, 319.0, 634.0, 309.0, 335.0, 
18:12:44.067471, 201.0, 317.0, 248.0, 312.0, 312.0, 321.0, 325.0, 300.0, 316.0, 634.0, 313.0, 328.0, 
18:12:44.075463, 369.0, 331.0, 400.5, 342.0, 343.5, 334.0, 334.0, 345.0, 327.5, 5.5, 329.5, 310.5, 
18:12:44.083464, 344.0, 312.0, 231.0, 306.0, 305.0, 314.0, 320.0, 295.0, 315.0, 633.0, 301.0, 332.0, 
18:12:44.091494, 229.0, 315.0, 263.0, 308.0, 307.0, 321.0, 326.0, 307.0, 319.0, 635.0, 319.0, 325.0, 
18:12:44.099486, 361.5, 329.5, 385.5, 341.5, 340.0, 333.5, 335.5, 339.5, 323.0, 86.5, 329.5, 313.0, 
18:12:44.107485, 340.0, 318.0, 272.0, 310.0, 314.0, 318.0, 324.0, 303.0, 318.0, 633.0, 302.0, 330.0, 
18:12:44.115437, 300.5, 322.5, 315.0, 323.5, 321.5, 327.5, 328.0, 321.5, 322.5, 462.5, 328.0, 319.0, 
18:12:44.123467, 358.0, 330.0, 400.0, 339.0, 339.0, 331.0, 332.0, 337.0, 321.0, 5.0, 325.0, 311.0, 
18:12:44.131455, 343.0, 314.0, 282.0, 317.0, 317.0, 317.0, 325.0, 306.0, 315.0, 632.0, 303.0, 331.0, 
18:12:44.139422, 287.0, 321.5, 310.0, 321.5, 320.5, 324.0, 327.5, 318.0, 323.5, 541.0, 325.0, 320.0, 
18:12:44.147451, 360.0, 333.0, 403.0, 344.0, 344.0, 336.0, 336.0, 340.0, 320.0, 6.0, 327.0, 309.0, 
18:12:44.155414, 304.0, 313.5, 270.5, 310.5, 313.5, 319.5, 325.5, 307.5, 320.0, 485.0, 311.5, 329.5, 
18:12:44.163454, 355.0, 323.0, 346.0, 335.0, 331.0, 331.0, 332.0, 330.0, 322.0, 633.0, 333.0, 314.0, 
18:12:44.171443, 341.0, 334.0, 395.0, 347.0, 344.0, 338.0, 335.0, 340.0, 321.0, 6.0, 327.0, 316.0, 
18:12:44.179395, 315.5, 312.5, 278.5, 310.5, 313.5, 320.0, 325.0, 307.0, 317.5, 358.0, 311.5, 325.5, 
18:12:44.187389, 363.0, 326.0, 334.0, 328.0, 322.0, 326.0, 327.0, 319.0, 323.0, 636.0, 326.0, 318.0, 
18:12:44.195386, 342.0, 322.0, 345.5, 328.0, 334.0, 329.5, 333.0, 336.0, 324.0, 6.0, 323.0, 317.5, 
18:12:44.203385, 256.0, 312.0, 250.0, 311.0, 308.0, 319.0, 324.0, 295.0, 315.0, 635.0, 312.0, 336.0, 
18:12:44.211381, 361.0, 325.0, 357.0, 331.0, 329.0, 330.0, 330.0, 326.0, 322.0, 634.0, 331.0, 316.0, 
18:12:44.219372, 343.0, 325.0, 348.5, 330.0, 330.5, 326.0, 330.0, 327.0, 319.0, 5.5, 319.5, 315.5, 
18:12:44.227363, 249.0, 309.0, 225.0, 303.0, 302.0, 317.0, 324.0, 305.0, 322.0, 635.0, 305.0, 333.0, 
18:12:44.235362, 345.5, 327.0, 367.5, 332.5, 332.0, 330.5, 331.0, 331.5, 321.0, 320.5, 332.0, 314.5, 
18:12:44.243358, 338.0, 317.0, 334.0, 325.0, 325.0, 326.0, 330.0, 321.0, 320.0, 7.0, 313.0, 322.0, 
18:12:44.251390, 311.0, 314.0, 272.0, 309.5, 315.5, 322.5, 325.5, 310.5, 322.5, 635.5, 321.0, 325.0, 
18:12:44.259345, 344.0, 333.0, 379.0, 345.0, 344.0, 337.0, 334.0, 342.0, 324.0, 6.0, 325.0, 311.0, 
18:12:44.267340, 316.0, 317.0, 295.5, 317.0, 318.5, 320.5, 325.0, 310.5, 316.5, 318.5, 310.5, 324.0, 
18:12:44.275371, 252.0, 317.0, 283.0, 319.0, 319.0, 329.0, 330.0, 315.0, 318.0, 634.0, 322.0, 320.0, 
18:12:44.283361, 350.0, 329.5, 388.0, 334.5, 337.0, 330.5, 331.0, 335.5, 322.0, 6.0, 327.5, 314.0, 
18:12:44.291354, 332.0, 304.0, 245.0, 305.0, 310.0, 320.0, 325.0, 301.0, 318.0, 633.0, 304.0, 333.0, 
18:12:44.299322, 308.0, 326.5, 337.5, 328.0, 326.0, 328.5, 329.0, 328.5, 326.0, 320.0, 331.0, 318.0, 
18:12:44.307353, 336.0, 325.0, 374.0, 335.0, 333.0, 334.0, 331.0, 325.0, 316.0, 9.0, 315.0, 317.0, 
18:12:44.315340, 298.5, 313.0, 252.0, 305.5, 306.5, 315.0, 321.5, 302.5, 317.0, 634.5, 309.5, 328.5, 
18:12:44.323339, 349.0, 331.0, 387.0, 338.0, 333.0, 336.0, 334.0, 340.0, 327.0, 7.0, 337.0, 310.0, 
18:12:44.331329, 334.5, 322.0, 336.5, 327.5, 329.5, 326.5, 330.5, 320.5, 319.5, 319.0, 317.0, 323.0, 
18:12:44.339330, 260.0, 314.0, 246.0, 312.0, 307.0, 320.0, 323.0, 304.0, 321.0, 636.0, 309.0, 331.0, 
18:12:44.347320, 350.0, 331.0, 359.0, 333.0, 333.0, 331.0, 328.0, 336.0, 322.0, 137.0, 334.0, 306.0, 
18:12:44.355325, 336.0, 320.5, 341.5, 327.5, 326.5, 327.0, 330.5, 319.0, 317.5, 301.5, 314.5, 320.5, 
18:12:44.363316, 204.0, 312.0, 242.0, 307.0, 307.0, 320.0, 325.0, 306.0, 321.0, 635.0, 309.0, 329.0, 
18:12:44.371307, 368.0, 327.0, 357.0, 332.0, 330.0, 328.0, 329.0, 336.0, 326.0, 377.0, 336.0, 312.0, 
18:12:44.379265, 347.0, 330.0, 407.0, 337.0, 338.0, 331.0, 335.0, 340.0, 324.0, 7.0, 331.0, 313.0, 
18:12:44.387297, 291.0, 313.0, 272.0, 314.5, 315.0, 322.0, 325.0, 308.5, 318.5, 479.5, 310.0, 331.5, 
18:12:44.395250, 361.0, 326.0, 341.0, 327.0, 333.0, 332.0, 332.0, 331.0, 322.0, 635.0, 328.0, 292.0, 
18:12:44.403246, 344.0, 329.0, 400.0, 344.0, 346.0, 334.0, 337.0, 341.0, 322.0, 7.0, 330.0, 311.0, 
18:12:44.411247, 332.0, 316.5, 279.0, 312.5, 313.5, 319.5, 324.0, 305.5, 318.0, 379.0, 312.5, 328.0, 
18:12:44.419242, 342.0, 326.0, 320.0, 327.0, 327.0, 332.0, 333.0, 331.0, 323.0, 634.0, 326.0, 314.0, 
18:12:44.427264, 333.0, 325.0, 388.0, 339.0, 339.0, 339.0, 336.0, 344.0, 325.0, 8.0, 332.0, 310.0, 
18:12:44.435260, 300.5, 315.0, 282.0, 315.0, 315.5, 319.5, 324.5, 307.0, 318.0, 318.0, 310.5, 330.0, 
18:12:44.443223, 352.0, 324.0, 343.0, 330.0, 329.0, 331.0, 332.0, 327.0, 324.0, 634.0, 329.0, 316.0, 
18:12:44.451222, 343.0, 332.0, 386.0, 338.0, 336.0, 330.0, 332.0, 338.0, 321.0, 6.0, 332.0, 307.0, 
18:12:44.459208, 316.0, 313.0, 277.5, 311.5, 315.5, 318.5, 325.5, 312.5, 319.0, 319.5, 312.0, 329.0, 
18:12:44.467202, 337.0, 323.0, 320.0, 325.0, 324.0, 327.0, 328.0, 325.0, 322.0, 635.0, 334.0, 319.0, 
18:12:44.475197, 331.5, 325.5, 368.5, 331.0, 332.0, 328.5, 331.0, 329.5, 319.5, 7.0, 322.0, 317.0, 
18:12:44.483196, 278.0, 314.0, 230.0, 307.0, 301.0, 317.0, 323.0, 293.0, 312.0, 632.0, 304.0, 331.0, 
18:12:44.491229, 318.0, 325.0, 351.5, 331.5, 331.5, 331.0, 331.0, 332.0, 322.5, 319.5, 328.5, 313.0, 
18:12:44.499223, 340.0, 320.0, 352.0, 324.0, 333.0, 328.0, 333.0, 327.0, 323.0, 7.0, 320.0, 322.0, 
18:12:44.507216, 332.0, 308.0, 239.0, 302.0, 304.0, 316.0, 325.0, 300.0, 320.0, 633.0, 304.0, 332.0, 
18:12:44.515206, 312.5, 325.0, 317.0, 330.0, 330.0, 325.5, 330.0, 328.0, 320.0, 321.5, 329.0, 315.5, 
18:12:44.523199, 330.0, 328.0, 378.0, 335.0, 334.0, 340.0, 332.0, 326.0, 317.0, 6.0, 317.0, 317.0, 
18:12:44.531203, 277.5, 312.0, 250.0, 306.5, 309.5, 317.5, 323.5, 306.0, 319.0, 633.0, 312.5, 324.5, 
18:12:44.539197, 352.0, 332.0, 408.0, 341.0, 339.0, 335.0, 334.0, 338.0, 324.0, 9.0, 340.0, 312.0, 
18:12:44.547157, 338.0, 325.0, 399.0, 343.0, 338.0, 326.0, 335.0, 334.0, 320.0, 7.0, 315.0, 327.0, 
18:12:44.555186, 304.0, 311.5, 241.0, 304.0, 314.0, 318.0, 324.5, 309.0, 320.5, 633.5, 310.5, 322.0, 
18:12:44.563139, 345.0, 332.0, 388.0, 342.0, 337.0, 338.0, 334.0, 340.0, 324.0, 5.0, 333.0, 312.0, 
18:12:44.571174, 335.0, 327.0, 397.0, 339.0, 335.0, 331.0, 330.0, 332.0, 320.0, 10.0, 327.0, 316.0, 
18:12:44.579130, 277.0, 315.5, 270.0, 311.0, 310.0, 320.0, 324.5, 302.0, 314.5, 634.0, 310.0, 330.5, 
18:12:44.587157, 371.0, 326.0, 352.0, 334.0, 341.0, 334.0, 334.0, 344.0, 339.0, 166.0, 338.0, 311.0, 
18:12:44.595118, 343.5, 321.0, 337.5, 324.0, 327.0, 325.0, 327.5, 319.0, 317.0, 320.0, 316.0, 325.5, 
18:12:44.603120, 258.0, 314.0, 252.0, 308.0, 311.0, 323.0, 325.0, 305.0, 320.0, 634.0, 314.0, 319.0, 
18:12:44.611108, 352.0, 322.0, 344.0, 330.0, 329.0, 329.0, 328.0, 329.0, 321.0, 433.0, 329.0, 310.0, 
18:12:44.619143, 334.5, 322.5, 348.5, 327.0, 326.5, 324.5, 328.0, 324.0, 321.0, 184.0, 321.0, 322.5, 
18:12:44.627099, 326.0, 311.0, 236.0, 304.0, 304.0, 321.0, 325.0, 300.0, 319.0, 634.0, 314.0, 328.0, 
18:12:44.635125, 325.0, 328.0, 384.5, 337.0, 338.5, 335.0, 335.0, 337.5, 322.5, 320.0, 335.5, 314.5, 
18:12:44.643086, 321.0, 315.0, 277.0, 319.0, 313.0, 316.0, 319.0, 308.0, 317.0, 158.0, 308.0, 334.0, 
18:12:44.651081, 289.0, 313.0, 219.0, 294.0, 306.0, 326.0, 325.0, 301.0, 319.0, 633.0, 308.0, 318.0, 
18:12:44.659075, 343.0, 327.0, 368.5, 335.0, 333.5, 321.5, 329.0, 334.0, 323.0, 322.0, 336.0, 315.5, 
18:12:44.667070, 330.0, 314.0, 310.0, 315.0, 319.0, 338.0, 332.0, 315.0, 316.0, 38.0, 301.0, 327.0, 
18:12:44.675064, 298.5, 321.5, 292.5, 319.5, 315.5, 323.0, 325.0, 310.5, 318.0, 634.0, 318.5, 324.0, 
18:12:44.683101, 351.0, 329.0, 391.0, 336.0, 345.0, 331.0, 332.0, 352.0, 328.0, 5.0, 337.0, 311.0, 
18:12:44.691053, 337.0, 315.0, 318.0, 320.0, 326.0, 326.0, 331.0, 318.0, 322.0, 7.0, 316.0, 324.0, 
18:12:44.699083, 287.0, 308.0, 237.0, 309.0, 306.0, 320.0, 326.0, 298.0, 315.0, 632.0, 305.0, 333.0, 
18:12:44.707078, 343.0, 328.0, 361.0, 331.5, 331.0, 332.5, 331.5, 330.5, 321.5, 319.0, 328.0, 312.0, 
18:12:44.715038, 332.0, 319.0, 325.0, 322.0, 322.0, 323.0, 325.0, 317.0, 316.0, 5.0, 310.0, 324.0, 
18:12:44.723066, 271.0, 310.0, 235.0, 305.0, 306.0, 316.0, 322.0, 300.0, 318.0, 635.0, 316.0, 339.0, 
18:12:44.731029, 319.5, 328.0, 349.5, 329.5, 331.0, 331.5, 331.0, 333.5, 324.0, 320.5, 326.0, 308.0, 
18:12:44.739027, 339.0, 321.0, 357.0, 331.0, 329.0, 321.0, 329.0, 320.0, 313.0, 7.0, 316.0, 321.0, 
18:12:44.747050, 294.0, 314.0, 261.0, 312.0, 312.5, 321.5, 325.0, 310.5, 323.0, 633.5, 317.0, 326.5, 
18:12:44.755044, 347.0, 333.0, 407.0, 340.0, 340.0, 332.0, 333.0, 341.0, 322.0, 5.0, 333.0, 308.0, 
18:12:44.763013, 317.5, 317.0, 306.5, 316.0, 319.0, 318.5, 324.5, 311.0, 314.5, 318.5, 312.0, 328.5, 
18:12:44.771033, 238.0, 313.0, 268.0, 314.0, 310.0, 319.0, 321.0, 311.0, 318.0, 633.0, 320.0, 319.0, 
18:12:44.778994, 349.0, 329.5, 392.0, 338.0, 344.5, 336.0, 336.5, 342.5, 326.0, 8.0, 331.0, 308.0, 
18:12:44.787022, 332.0, 308.0, 232.0, 307.0, 308.0, 311.0, 322.0, 301.0, 319.0, 633.0, 307.0, 333.0, 
18:12:44.794983, 299.0, 326.5, 328.5, 327.5, 323.5, 332.0, 328.5, 319.5, 318.5, 320.0, 327.5, 320.0, 
18:12:44.803015, 345.0, 326.0, 387.0, 337.0, 337.0, 336.0, 335.0, 335.0, 320.0, 5.0, 327.0, 315.0, 
18:12:44.811007, 299.0, 313.5, 265.5, 307.5, 310.5, 317.5, 322.5, 302.5, 316.5, 633.0, 304.5, 330.5, 
18:12:44.818973, 353.0, 326.0, 366.0, 334.0, 335.0, 333.0, 334.0, 338.0, 328.0, 89.0, 345.0, 311.0, 
18:12:44.827003, 339.0, 331.0, 399.0, 339.0, 342.0, 334.0, 334.0, 340.0, 323.0, 5.0, 328.0, 311.0, 
18:12:44.834959, 333.0, 316.0, 284.0, 316.0, 316.0, 318.0, 324.0, 306.0, 316.0, 579.0, 305.0, 330.0, 
18:12:44.842953, 257.0, 312.0, 247.0, 307.0, 307.0, 319.0, 324.0, 307.0, 320.0, 633.0, 312.0, 330.0, 
18:12:44.850955, 340.0, 329.0, 384.5, 334.5, 334.0, 328.0, 329.0, 333.5, 321.5, 181.5, 335.0, 312.5, 
18:12:44.858941, 328.0, 314.0, 289.0, 313.0, 316.0, 320.0, 331.0, 314.0, 319.0, 282.0, 309.0, 329.0, 
18:12:44.866937, 253.0, 310.0, 239.0, 308.0, 307.0, 320.0, 323.0, 302.0, 319.0, 633.0, 313.0, 332.0, 
18:12:44.874936, 338.0, 328.5, 383.5, 335.5, 335.0, 332.5, 334.5, 335.5, 321.5, 305.5, 326.0, 311.5, 
18:12:44.882926, 330.0, 317.0, 301.0, 319.0, 320.0, 322.0, 326.0, 314.0, 321.0, 114.0, 313.0, 327.0, 
18:12:44.890921, 316.0, 321.5, 291.0, 319.0, 322.5, 323.0, 328.0, 319.0, 321.5, 632.5, 322.5, 322.5, 
18:12:44.898915, 341.0, 328.0, 408.0, 342.0, 340.0, 341.0, 333.0, 341.0, 322.0, 5.0, 338.0, 313.0, 
18:12:44.906911, 332.0, 314.0, 293.0, 314.0, 318.0, 311.0, 328.0, 317.0, 317.0, 38.0, 308.0, 324.0, 
18:12:44.914939, 288.0, 315.0, 245.0, 311.0, 304.0, 324.0, 320.0, 293.0, 317.0, 635.0, 302.0, 340.0, 
18:12:44.922942, 348.5, 325.5, 366.0, 328.0, 332.5, 328.5, 331.0, 332.0, 321.5, 319.0, 334.0, 307.0, 
18:12:44.930899, 331.0, 316.0, 316.0, 321.0, 326.0, 325.0, 329.0, 318.0, 319.0, 6.0, 314.0, 326.0, 
18:12:44.938931, 322.0, 316.5, 286.0, 317.0, 317.5, 324.5, 328.5, 316.0, 321.0, 633.5, 317.5, 324.5, 
18:12:44.946944, 337.0, 334.0, 402.0, 342.0, 340.0, 332.0, 334.0, 337.0, 322.0, 6.0, 333.0, 308.0, 
18:12:44.954918, 329.0, 318.0, 348.0, 320.0, 322.0, 322.0, 325.0, 316.0, 317.0, 8.0, 315.0, 325.0, 
18:12:44.962912, 288.0, 309.0, 223.0, 303.0, 303.0, 317.0, 325.0, 303.0, 320.0, 634.0, 305.0, 332.0, 
18:12:44.970870, 330.5, 325.5, 358.0, 332.5, 332.0, 332.0, 331.0, 331.0, 324.5, 321.0, 332.5, 314.5, 
18:12:44.978863, 334.0, 320.0, 355.0, 327.0, 328.0, 323.0, 328.0, 320.0, 317.0, 5.0, 315.0, 320.0, 
18:12:44.986897, 313.5, 316.0, 250.0, 313.5, 313.0, 322.0, 324.0, 307.0, 317.0, 633.5, 310.0, 326.5, 
18:12:44.994852, 339.0, 331.0, 402.0, 338.0, 339.0, 331.0, 332.0, 343.0, 328.0, 8.0, 337.0, 310.0, 
18:12:45.002887, 319.0, 316.5, 310.0, 321.0, 319.5, 322.5, 327.5, 311.0, 318.0, 319.5, 312.0, 325.5, 
18:12:45.010848, 292.0, 316.0, 254.0, 312.0, 315.0, 322.0, 329.0, 320.0, 324.0, 634.0, 322.0, 322.0, 
18:12:45.018841, 340.0, 333.0, 399.0, 340.0, 338.0, 332.0, 332.0, 339.0, 322.0, 5.0, 332.0, 311.0, 
18:12:45.026875, 331.0, 325.0, 385.0, 334.0, 332.0, 327.0, 332.0, 329.0, 319.0, 8.0, 319.0, 317.0, 
18:12:45.034828, 290.0, 312.5, 252.0, 307.0, 309.0, 318.0, 323.5, 305.0, 322.0, 634.5, 313.0, 324.0, 
18:12:45.042819, 347.0, 330.0, 400.0, 340.0, 340.0, 338.0, 336.0, 341.0, 324.0, 7.0, 336.0, 310.0, 
18:12:45.050853, 335.5, 321.5, 319.0, 322.0, 321.0, 321.5, 326.5, 316.5, 318.0, 321.5, 314.0, 327.0, 
18:12:45.058808, 243.0, 316.0, 264.0, 312.0, 312.0, 322.0, 328.0, 312.0, 325.0, 635.0, 317.0, 328.0, 
18:12:45.066802, 356.0, 329.0, 355.0, 341.0, 334.0, 336.0, 334.0, 338.0, 329.0, 44.0, 337.0, 315.0, 
18:12:45.074803, 337.5, 323.0, 337.0, 326.0, 328.0, 328.5, 327.5, 321.0, 317.0, 318.5, 315.5, 323.5, 
18:12:45.082800, 220.0, 312.0, 256.0, 314.0, 310.0, 316.0, 325.0, 303.0, 319.0, 633.0, 315.0, 329.0, 
18:12:45.090826, 353.0, 328.5, 392.0, 334.5, 335.0, 332.5, 333.0, 333.5, 321.0, 150.0, 333.5, 310.5, 
18:12:45.098822, 338.0, 315.0, 272.0, 316.0, 319.0, 322.0, 326.0, 313.0, 317.0, 421.0, 296.0, 329.0, 
18:12:45.106817, 328.0, 320.0, 300.5, 318.5, 317.0, 323.0, 327.5, 318.5, 323.0, 606.5, 328.0, 322.5, 
18:12:45.114806, 324.0, 332.0, 392.0, 342.0, 341.0, 335.0, 333.0, 336.0, 318.0, 8.0, 331.0, 314.0, 
18:12:45.122805, 297.5, 310.0, 269.0, 310.5, 313.0, 320.0, 326.5, 308.5, 318.5, 394.5, 311.5, 328.5, 
18:12:45.130794, 339.0, 326.0, 347.0, 328.0, 329.0, 333.0, 334.0, 332.0, 324.0, 634.0, 330.0, 315.0, 
18:12:45.138804, 330.0, 328.0, 396.0, 346.0, 345.0, 337.0, 334.0, 342.0, 322.0, 6.0, 331.0, 310.0, 
18:12:45.146787, 325.0, 314.0, 288.0, 316.0, 313.5, 319.5, 324.5, 305.5, 316.0, 347.5, 307.5, 333.0, 
18:12:45.154744, 322.0, 322.0, 300.0, 319.0, 327.0, 327.0, 334.0, 330.0, 323.0, 634.0, 318.0, 294.0, 
18:12:45.162746, 322.0, 321.5, 344.5, 327.0, 330.5, 329.0, 332.5, 329.0, 319.5, 6.0, 323.5, 318.0, 
18:12:45.170741, 259.0, 312.0, 250.0, 308.0, 308.0, 319.0, 320.0, 303.0, 321.0, 635.0, 308.0, 336.0, 
18:12:45.178729, 341.0, 325.0, 316.0, 326.0, 324.0, 328.0, 328.0, 322.0, 316.0, 633.0, 331.0, 321.0, 
18:12:45.186722, 347.0, 330.0, 388.0, 337.0, 334.0, 328.0, 328.0, 332.0, 326.0, 9.0, 335.0, 310.0, 
18:12:45.194759, 335.0, 317.0, 323.0, 326.0, 328.0, 324.0, 330.0, 325.0, 314.0, 6.0, 317.0, 324.0, 
18:12:45.202713, 276.0, 310.0, 227.0, 306.0, 307.0, 317.0, 324.0, 300.0, 319.0, 633.0, 302.0, 330.0, 
18:12:45.210713, 337.0, 322.0, 313.0, 324.0, 329.0, 332.0, 332.0, 329.0, 327.0, 633.0, 329.0, 316.0, 
18:12:45.218738, 343.0, 331.0, 401.0, 341.0, 341.0, 335.0, 335.0, 338.0, 321.0, 4.0, 330.0, 312.0, 
18:12:45.226697, 317.0, 314.5, 304.5, 315.5, 316.0, 321.5, 327.0, 309.5, 317.0, 320.0, 311.0, 327.0, 
18:12:45.234698, 304.0, 319.0, 254.0, 317.0, 316.0, 326.0, 330.0, 318.0, 320.0, 635.0, 309.0, 319.0, 
18:12:45.242726, 343.0, 332.0, 399.0, 342.0, 342.0, 334.0, 334.0, 341.0, 322.0, 5.0, 335.0, 308.0, 
18:12:45.250681, 333.0, 321.0, 371.0, 327.0, 330.0, 324.0, 330.0, 329.0, 322.0, 8.0, 319.0, 321.0, 
18:12:45.258683, 294.5, 313.5, 258.5, 310.0, 311.0, 321.0, 324.5, 308.0, 320.5, 634.0, 316.0, 328.5, 
18:12:45.266673, 341.0, 332.0, 400.0, 339.0, 344.0, 337.0, 335.0, 343.0, 325.0, 6.0, 335.0, 308.0, 
18:12:45.274673, 335.0, 328.0, 381.0, 337.0, 336.0, 331.0, 333.0, 328.0, 318.0, 6.0, 318.0, 316.0, 
18:12:45.282699, 332.0, 333.0, 387.0, 343.0, 338.0, 333.0, 333.0, 339.0, 320.0, 6.0, 329.0, 309.0, 
18:12:45.290654, 327.0, 326.0, 370.0, 333.0, 332.0, 327.0, 330.0, 326.0, 318.0, 7.0, 324.0, 321.0, 
18:12:45.298655, 324.0, 309.0, 242.0, 314.0, 308.0, 317.0, 323.0, 301.0, 322.0, 637.0, 308.0, 344.0, 
18:12:45.306649, 269.0, 317.0, 270.0, 300.0, 315.0, 320.0, 325.0, 312.0, 321.0, 633.0, 319.0, 309.0, 
18:12:45.314644, 341.0, 331.0, 404.0, 338.0, 340.0, 336.0, 336.0, 342.0, 326.0, 8.0, 340.0, 310.0, 
18:12:45.322639, 332.5, 320.5, 315.0, 323.0, 323.5, 323.5, 327.0, 316.0, 316.5, 318.5, 308.0, 324.0, 
18:12:45.330634, 255.0, 317.0, 265.0, 309.0, 313.0, 325.0, 327.0, 310.0, 321.0, 634.0, 318.0, 326.0, 
18:12:45.338629, 347.0, 333.0, 383.0, 346.0, 337.0, 334.0, 333.0, 338.0, 326.0, 9.0, 340.0, 320.0, 
18:12:45.346624, 331.5, 315.5, 334.0, 317.5, 324.0, 325.0, 330.0, 321.0, 319.5, 320.5, 317.0, 320.5, 
18:12:45.362607, 305.0, 317.0, 262.0, 312.0, 314.0, 325.0, 326.0, 307.0, 319.0, 633.0, 311.0, 331.0, 
18:12:45.370601, 331.0, 331.0, 348.0, 338.0, 336.0, 335.0, 334.0, 338.0, 325.0, 117.0, 337.0, 309.0, 
18:12:45.378596, 326.0, 324.0, 347.0, 329.0, 328.0, 327.0, 330.0, 320.0, 317.0, 289.5, 314.5, 321.5, 
18:12:45.386591, 223.0, 311.0, 249.0, 305.0, 309.0, 316.0, 323.0, 309.0, 321.0, 635.0, 312.0, 327.0, 
18:12:45.394584, 350.5, 329.5, 376.5, 336.5, 334.5, 331.0, 330.0, 334.0, 323.0, 209.5, 335.0, 312.5, 
18:12:45.402579, 333.0, 313.0, 297.0, 315.0, 319.0, 323.0, 328.0, 314.0, 318.0, 331.0, 306.0, 331.0, 
18:12:45.410581, 257.0, 311.0, 241.0, 304.0, 309.0, 322.0, 326.0, 303.0, 318.0, 632.0, 310.0, 329.0, 
18:12:45.418602, 349.0, 330.0, 346.0, 346.0, 333.0, 333.0, 331.0, 331.0, 322.0, 634.0, 332.0, 323.0, 
18:12:45.426563, 334.5, 321.0, 354.5, 327.0, 333.0, 328.0, 331.5, 327.0, 320.5, 65.5, 321.5, 315.0, 
18:12:45.442553, 320.0, 319.5, 295.0, 319.0, 318.0, 324.0, 325.5, 313.0, 319.0, 632.5, 319.0, 324.0, 
18:12:45.450547, 330.5, 324.5, 347.0, 332.0, 330.0, 328.5, 329.5, 327.0, 320.5, 17.0, 323.0, 320.5, 
18:12:45.458540, 324.5, 320.0, 300.0, 319.5, 322.5, 324.5, 328.5, 315.0, 322.0, 633.0, 317.5, 323.0, 
18:12:45.466535, 306.6666666666667, 318.3333333333333, 310.3333333333333, 319.3333333333333, 321.3333333333333, 324.3333333333333, 328.3333333333333, 319.0, 318.3333333333333, 216.0, 316.6666666666667, 322.0, 
18:12:45.474559, 333.0, 324.3333333333333, 349.3333333333333, 331.6666666666667, 330.0, 328.6666666666667, 329.0, 325.6666666666667, 321.3333333333333, 216.0, 325.3333333333333, 316.3333333333333, 
18:12:45.482556, 327.5, 316.5, 275.5, 313.5, 315.0, 324.0, 326.0, 311.0, 320.0, 634.0, 317.5, 327.5, 
18:12:45.490535, 324.3333333333333, 321.6666666666667, 327.0, 326.6666666666667, 325.0, 324.3333333333333, 328.0, 321.0, 320.0, 215.0, 317.6666666666667, 324.6666666666667, 
18:12:45.498518, 321.3333333333333, 325.6666666666667, 347.3333333333333, 335.0, 329.6666666666667, 328.3333333333333, 331.0, 328.3333333333333, 321.6666666666667, 215.66666666666666, 324.0, 321.6666666666667, 
18:12:45.506511, 322.25, 322.0, 324.0, 320.75, 324.75, 325.75, 329.0, 322.0, 320.5, 320.5, 322.0, 317.0, 
18:12:45.514503, 322.3333333333333, 319.3333333333333, 296.6666666666667, 317.3333333333333, 319.6666666666667, 323.3333333333333, 328.6666666666667, 318.0, 320.6666666666667, 424.0, 316.3333333333333, 323.0, 
18:12:45.522497, 312.25, 320.75, 318.5, 322.25, 322.0, 324.75, 328.0, 320.5, 322.5, 339.5, 320.75, 321.75, 
18:12:45.530492, 329.3333333333333, 317.6666666666667, 313.0, 319.0, 320.6666666666667, 323.3333333333333, 327.6666666666667, 315.0, 317.3333333333333, 416.3333333333333, 314.3333333333333, 327.3333333333333, 
18:12:45.538489, 306.25, 320.75, 320.5, 323.0, 323.25, 324.25, 328.25, 321.5, 320.75, 325.5, 322.25, 320.75, 
18:12:45.546484, 334.6666666666667, 326.3333333333333, 352.0, 334.0, 332.3333333333333, 331.0, 332.3333333333333, 328.6666666666667, 321.6666666666667, 255.33333333333334, 324.6666666666667, 316.0, 
18:12:45.554477, 324.5, 320.75, 320.0, 324.5, 325.0, 326.25, 328.5, 321.0, 320.0, 331.0, 321.0, 319.75, 
18:12:45.562474, 326.5, 322.0, 322.5, 324.5, 324.75, 326.0, 328.5, 321.5, 320.25, 320.25, 321.75, 321.0, 
18:12:45.570494, 323.75, 320.5, 321.75, 322.25, 323.75, 325.5, 328.5, 321.0, 320.25, 320.25, 322.25, 321.5, 
18:12:45.578459, 321.0, 319.6666666666667, 312.3333333333333, 319.0, 321.3333333333333, 324.6666666666667, 328.6666666666667, 322.3333333333333, 321.0, 426.6666666666667, 322.3333333333333, 321.3333333333333, 
18:12:45.586454, 320.25, 321.25, 319.25, 324.5, 325.0, 325.75, 329.5, 322.25, 321.25, 320.5, 320.5, 320.5, 
18:12:45.594451, 322.6666666666667, 318.0, 293.0, 314.3333333333333, 317.6666666666667, 321.3333333333333, 326.3333333333333, 313.6666666666667, 318.0, 424.6666666666667, 312.3333333333333, 323.6666666666667, 
18:12:45.602445, 308.0, 320.75, 318.25, 324.75, 325.0, 325.0, 328.5, 320.25, 320.5, 318.75, 319.0, 322.25, 
18:12:45.610439, 322.75, 321.75, 327.25, 323.5, 323.75, 326.5, 328.25, 320.25, 320.0, 321.0, 319.25, 322.0, 
18:12:45.618434, 327.75, 319.5, 322.0, 324.75, 325.75, 326.5, 329.0, 322.0, 321.25, 334.75, 321.0, 322.0, 
18:12:45.626427, 323.0, 325.0, 350.3333333333333, 330.3333333333333, 327.6666666666667, 327.6666666666667, 327.6666666666667, 325.6666666666667, 320.6666666666667, 244.0, 324.0, 319.6666666666667, 
18:12:45.634424, 322.25, 320.5, 317.5, 324.0, 323.5, 325.25, 328.75, 321.5, 319.5, 342.75, 320.0, 320.0, 
18:12:45.642417, 321.0, 319.0, 291.0, 315.5, 320.0, 323.5, 327.0, 315.5, 320.5, 634.0, 321.5, 323.5, 
18:12:45.650413, 321.0, 321.0, 320.0, 324.6666666666667, 324.0, 324.6666666666667, 328.3333333333333, 317.3333333333333, 319.6666666666667, 242.33333333333334, 317.0, 322.0, 
18:12:45.658410, 321.0, 328.0, 354.5, 336.5, 333.0, 332.0, 331.5, 334.0, 325.5, 320.0, 331.5, 311.5, 
18:12:45.666432, 322.0, 318.6666666666667, 292.0, 317.3333333333333, 320.6666666666667, 324.0, 327.6666666666667, 313.6666666666667, 317.3333333333333, 424.0, 315.0, 324.6666666666667, 
18:12:45.674396, 322.6666666666667, 320.0, 320.6666666666667, 322.3333333333333, 323.3333333333333, 322.6666666666667, 326.6666666666667, 317.6666666666667, 317.6666666666667, 215.66666666666666, 320.6666666666667, 322.6666666666667, 
18:12:45.682393, 321.0, 326.0, 351.6666666666667, 331.0, 329.0, 328.6666666666667, 330.3333333333333, 328.3333333333333, 323.0, 216.0, 325.0, 317.6666666666667, 
18:12:45.690414, 321.0, 320.0, 305.0, 319.6666666666667, 320.0, 323.3333333333333, 326.6666666666667, 320.0, 321.3333333333333, 425.6666666666667, 318.3333333333333, 320.0, 
18:12:45.698380, 313.6666666666667, 315.0, 291.0, 313.6666666666667, 318.3333333333333, 322.0, 328.6666666666667, 314.6666666666667, 317.0, 424.3333333333333, 315.6666666666667, 326.0, 
18:12:45.706374, 322.25, 320.75, 322.75, 321.75, 324.25, 325.5, 330.0, 320.75, 319.5, 320.75, 320.75, 320.5, 
18:12:45.714370, 314.0, 322.75, 325.25, 325.25, 325.25, 325.5, 329.0, 321.5, 320.0, 319.5, 318.5, 320.25, 
18:12:45.722364, 328.0, 320.5, 324.25, 327.0, 326.5, 326.75, 329.5, 321.75, 319.75, 327.5, 319.0, 320.5, 
18:12:45.730359, 321.0, 318.75, 315.0, 322.75, 326.25, 328.5, 331.5, 325.5, 323.75, 331.0, 323.0, 321.0, 
18:12:45.738357, 321.3333333333333, 323.0, 352.3333333333333, 334.0, 329.3333333333333, 327.3333333333333, 329.6666666666667, 325.6666666666667, 323.6666666666667, 241.0, 329.0, 318.3333333333333, 
18:12:45.746349, 322.25, 322.0, 318.5, 323.5, 324.0, 324.75, 330.25, 322.5, 322.5, 329.5, 322.25, 316.25, 
18:12:45.754343, 320.3333333333333, 324.0, 324.0, 325.6666666666667, 324.6666666666667, 328.3333333333333, 330.6666666666667, 324.0, 323.0, 424.6666666666667, 326.0, 320.3333333333333, 
18:12:45.762357, 322.25, 320.75, 313.5, 322.5, 323.25, 325.25, 328.0, 319.75, 318.75, 320.25, 318.25, 318.0, 
18:12:45.770363, 321.75, 332.75, 317.25, 320.75, 321.75, 323.0, 326.5, 319.0, 319.0, 319.75, 320.25, 319.25, 
18:12:45.778326, 321.3333333333333, 312.3333333333333, 289.3333333333333, 307.6666666666667, 317.3333333333333, 320.6666666666667, 327.6666666666667, 314.3333333333333, 317.6666666666667, 425.3333333333333, 315.0, 331.0, 
18:12:45.786324, 321.6666666666667, 331.6666666666667, 333.3333333333333, 328.6666666666667, 325.6666666666667, 325.0, 329.3333333333333, 322.0, 320.6666666666667, 215.0, 320.3333333333333, 315.0, 
18:12:45.794316, 322.6666666666667, 314.3333333333333, 345.6666666666667, 336.6666666666667, 328.6666666666667, 330.3333333333333, 330.0, 327.6666666666667, 321.6666666666667, 215.66666666666666, 326.3333333333333, 318.6666666666667, 
18:12:45.802312, 321.0, 319.0, 276.0, 314.3333333333333, 321.3333333333333, 324.3333333333333, 327.3333333333333, 317.6666666666667, 319.6666666666667, 423.0, 318.6666666666667, 326.6666666666667, 
18:12:45.810305, 321.0, 316.6666666666667, 300.0, 313.0, 316.6666666666667, 321.3333333333333, 328.0, 312.0, 314.3333333333333, 424.3333333333333, 312.6666666666667, 324.3333333333333, 
18:12:45.818301, 322.25, 321.25, 299.5, 326.25, 326.25, 326.75, 329.25, 323.25, 323.25, 339.25, 320.5, 321.0, 
18:12:45.826294, 320.0, 331.0, 384.0, 340.0, 334.0, 334.0, 331.0, 342.0, 337.0, 353.0, 343.0, 311.0, 
18:12:45.834289, 322.0, 325.0, 377.0, 331.0, 321.0, 325.5, 326.0, 318.5, 316.0, 220.0, 316.5, 317.5, 
18:12:45.842284, 321.0, 326.3333333333333, 317.6666666666667, 330.0, 331.6666666666667, 330.0, 331.6666666666667, 328.0, 324.6666666666667, 405.0, 326.3333333333333, 316.6666666666667, 
18:12:45.850279, 322.0, 308.5, 260.0, 298.0, 309.0, 313.5, 322.0, 301.0, 307.0, 376.5, 308.0, 326.5, 
18:12:45.858273, 322.0, 331.5, 388.0, 346.5, 334.0, 336.0, 331.0, 335.5, 329.5, 319.5, 332.5, 313.0, 
18:12:45.866268, 321.0, 316.6666666666667, 258.6666666666667, 313.6666666666667, 317.6666666666667, 321.3333333333333, 325.6666666666667, 310.6666666666667, 312.6666666666667, 445.0, 307.0, 324.6666666666667, 
18:12:45.874265, 322.5, 325.0, 418.5, 334.0, 333.0, 329.0, 330.0, 337.0, 332.5, 6.0, 343.5, 317.5, 
18:12:45.882257, 321.5, 315.5, 200.0, 310.0, 318.5, 323.5, 329.5, 312.0, 317.0, 632.5, 312.5, 327.0, 
18:12:45.890252, 320.5, 327.0, 443.0, 338.0, 330.0, 330.5, 328.0, 326.5, 316.5, 6.0, 323.0, 317.5, 
18:12:45.898247, 320.5, 312.0, 187.5, 303.0, 317.5, 321.0, 328.0, 314.0, 319.0, 634.0, 317.0, 325.0, 
18:12:45.906243, 321.5, 317.25, 326.0, 320.75, 319.75, 323.75, 327.75, 318.25, 318.5, 321.25, 314.0, 319.75, 
18:12:45.914237, 320.6666666666667, 324.6666666666667, 375.3333333333333, 328.0, 325.6666666666667, 325.0, 329.3333333333333, 325.0, 322.6666666666667, 216.33333333333334, 325.6666666666667, 321.3333333333333, 
18:12:45.922230, 321.3333333333333, 325.3333333333333, 386.3333333333333, 336.0, 329.0, 330.6666666666667, 329.0, 327.6666666666667, 324.3333333333333, 217.0, 325.0, 317.0, 
18:12:45.930229, 320.0, 321.75, 319.0, 323.5, 322.5, 325.5, 328.0, 320.75, 319.0, 320.5, 320.0, 320.0, 
18:12:45.938220, 321.6666666666667, 317.6666666666667, 247.66666666666666, 313.0, 320.0, 323.0, 327.6666666666667, 319.0, 325.0, 498.6666666666667, 333.6666666666667, 323.3333333333333, 
18:12:45.946216, 317.0, 321.25, 313.25, 322.25, 322.75, 322.25, 325.0, 319.25, 320.0, 321.25, 321.0, 320.75, 
18:12:45.954239, 315.75, 320.75, 311.25, 322.5, 323.5, 327.75, 329.5, 321.0, 321.25, 320.5, 321.0, 323.0, 
18:12:45.962204, 322.3333333333333, 320.6666666666667, 293.3333333333333, 319.0, 320.6666666666667, 325.0, 328.0, 315.6666666666667, 316.6666666666667, 425.0, 313.0, 325.6666666666667, 
18:12:45.970198, 303.75, 321.25, 324.0, 326.25, 328.0, 328.25, 329.5, 322.0, 322.0, 323.75, 321.5, 321.5, 
18:12:45.978193, 347.6666666666667, 324.3333333333333, 363.6666666666667, 329.6666666666667, 330.0, 328.0, 333.3333333333333, 326.6666666666667, 321.0, 243.66666666666666, 323.0, 315.6666666666667, 
18:12:45.986190, 311.6666666666667, 324.3333333333333, 334.3333333333333, 329.0, 325.0, 330.3333333333333, 326.0, 321.0, 319.6666666666667, 372.3333333333333, 326.6666666666667, 322.0, 
18:12:45.994184, 315.3333333333333, 318.0, 282.0, 315.6666666666667, 320.0, 324.6666666666667, 330.3333333333333, 318.6666666666667, 323.0, 486.0, 317.6666666666667, 323.3333333333333, 
18:12:46.002180, 335.6666666666667, 320.3333333333333, 317.0, 322.6666666666667, 322.0, 324.0, 328.3333333333333, 317.6666666666667, 316.6666666666667, 253.0, 316.6666666666667, 322.3333333333333, 
18:12:46.010173, 319.25, 320.25, 323.25, 323.75, 327.25, 328.0, 329.75, 323.0, 322.75, 320.75, 323.0, 320.5, 
18:12:46.018181, 334.25, 320.5, 316.5, 324.0, 324.5, 324.25, 328.5, 322.5, 320.25, 319.25, 316.25, 320.0, 
18:12:46.026161, 339.0, 324.6666666666667, 364.6666666666667, 330.6666666666667, 327.3333333333333, 327.6666666666667, 330.3333333333333, 325.3333333333333, 320.3333333333333, 216.66666666666666, 326.6666666666667, 317.3333333333333, 
18:12:46.034175, 326.5, 321.5, 314.5, 323.0, 323.25, 325.75, 328.0, 321.25, 320.5, 321.25, 320.25, 317.0, 
18:12:46.042179, 318.5, 323.25, 327.5, 326.25, 327.5, 329.25, 330.5, 323.5, 322.25, 319.75, 324.5, 322.5, 
18:12:46.050174, 327.0, 321.5, 323.5, 324.5, 324.25, 326.0, 328.5, 321.75, 320.75, 320.75, 320.5, 321.25, 
18:12:46.058168, 316.75, 321.25, 320.5, 324.25, 325.0, 327.5, 330.25, 320.5, 320.0, 319.5, 321.0, 319.5, 
18:12:46.066134, 325.0, 322.0, 323.5, 324.25, 324.25, 326.25, 330.25, 321.75, 320.0, 335.0, 320.75, 321.0, 
18:12:46.074129, 308.5, 322.5, 325.0, 325.25, 325.75, 326.75, 328.5, 318.25, 318.5, 376.5, 319.5, 320.25, 
18:12:46.082125, 322.0, 319.25, 323.5, 323.5, 325.25, 326.5, 328.75, 325.25, 323.75, 381.0, 323.25, 319.25, 
18:12:46.090120, 333.0, 318.6666666666667, 277.0, 316.0, 315.6666666666667, 322.3333333333333, 325.6666666666667, 310.6666666666667, 315.6666666666667, 479.3333333333333, 314.6666666666667, 323.6666666666667, 
18:12:46.098114, 327.25, 320.5, 323.0, 324.25, 324.5, 325.5, 327.5, 322.5, 321.75, 338.75, 322.5, 321.0, 
18:12:46.106108, 332.25, 319.75, 309.25, 321.75, 324.5, 326.25, 329.5, 321.5, 321.25, 320.0, 323.5, 321.0, 
18:12:46.114104, 319.3333333333333, 320.3333333333333, 321.3333333333333, 321.0, 322.0, 322.6666666666667, 326.3333333333333, 317.3333333333333, 317.6666666666667, 216.0, 317.0, 321.6666666666667, 
18:12:46.122127, 327.75, 320.25, 322.25, 324.25, 325.0, 326.75, 329.25, 321.75, 320.25, 320.75, 320.75, 321.25, 
18:12:46.130123, 317.25, 322.5, 326.5, 324.25, 325.0, 324.75, 328.5, 320.75, 320.5, 320.0, 320.75, 320.5, 
18:12:46.138087, 314.6666666666667, 325.0, 356.3333333333333, 329.6666666666667, 329.3333333333333, 330.3333333333333, 331.6666666666667, 328.6666666666667, 322.0, 216.33333333333334, 326.3333333333333, 317.3333333333333, 
18:12:46.146084, 316.25, 322.25, 326.25, 323.75, 324.25, 327.75, 328.0, 322.0, 320.75, 320.25, 322.0, 321.0, 
18:12:46.154107, 319.25, 321.25, 324.25, 322.0, 322.5, 326.5, 329.75, 319.5, 321.0, 338.0, 323.0, 317.25, 
18:12:46.162100, 306.0, 317.6666666666667, 288.6666666666667, 317.0, 318.3333333333333, 323.3333333333333, 327.6666666666667, 315.0, 319.0, 513.3333333333334, 315.3333333333333, 322.6666666666667, 
18:12:46.170066, 316.5, 322.25, 322.5, 324.5, 327.0, 328.25, 330.25, 323.5, 321.75, 388.25, 320.5, 320.75, 
18:12:46.178060, 331.25, 322.25, 327.75, 324.5, 323.75, 325.75, 328.25, 320.0, 320.0, 366.0, 320.25, 321.75, 
18:12:46.186056, 316.3333333333333, 319.3333333333333, 312.6666666666667, 322.6666666666667, 323.6666666666667, 326.3333333333333, 328.6666666666667, 318.0, 321.3333333333333, 255.0, 319.3333333333333, 323.6666666666667, 
18:12:46.194049, 324.5, 321.0, 320.0, 323.0, 323.75, 325.75, 329.25, 321.0, 318.5, 325.5, 317.25, 322.75, 
18:12:46.202045, 342.5, 321.25, 323.25, 324.5, 325.0, 325.0, 327.75, 319.75, 322.0, 321.0, 328.0, 321.0, 
18:12:46.210038, 318.75, 321.25, 323.75, 324.75, 324.75, 325.0, 328.5, 320.0, 318.25, 321.0, 316.25, 320.5, 
18:12:46.218034, 324.0, 327.3333333333333, 358.0, 332.3333333333333, 329.6666666666667, 329.3333333333333, 330.3333333333333, 328.0, 322.0, 216.66666666666666, 327.0, 317.3333333333333, 
18:12:46.226029, 313.25, 321.75, 323.5, 325.0, 325.25, 325.75, 328.75, 320.25, 319.5, 319.75, 320.0, 320.75, 
18:12:46.234023, 319.5, 319.5, 322.75, 322.5, 325.25, 325.25, 327.75, 322.25, 322.5, 320.0, 319.0, 320.0, 
18:12:46.242018, 312.0, 318.6666666666667, 291.0, 320.0, 320.0, 325.0, 326.3333333333333, 315.6666666666667, 317.3333333333333, 424.3333333333333, 311.6666666666667, 324.0, 
18:12:46.250011, 332.0, 319.75, 323.25, 317.5, 323.0, 322.25, 328.25, 322.0, 324.5, 365.25, 320.75, 321.25, 
18:12:46.258006, 294.6666666666667, 317.6666666666667, 307.0, 323.6666666666667, 322.0, 325.3333333333333, 329.3333333333333, 317.6666666666667, 318.0, 362.6666666666667, 315.3333333333333, 324.0, 
18:12:46.266034, 341.3333333333333, 324.0, 355.0, 333.0, 332.0, 330.3333333333333, 331.3333333333333, 328.3333333333333, 324.0, 235.66666666666666, 324.6666666666667, 317.0, 
18:12:46.273996, 326.25, 321.5, 323.5, 324.5, 325.75, 325.0, 327.25, 321.25, 320.0, 340.5, 324.0, 322.75, 
18:12:46.281992, 332.25, 323.5, 316.5, 320.5, 320.5, 327.0, 330.0, 319.5, 319.0, 321.0, 319.0, 324.75, 
18:12:46.290014, 328.25, 318.75, 297.5, 321.5, 324.25, 321.5, 325.25, 320.75, 321.0, 320.5, 321.75, 315.0, 
18:12:46.297980, 325.25, 321.25, 328.25, 321.75, 321.5, 327.5, 328.5, 320.5, 319.25, 320.25, 321.5, 324.25, 
18:12:46.305977, 321.3333333333333, 320.6666666666667, 297.3333333333333, 318.6666666666667, 320.6666666666667, 321.3333333333333, 325.6666666666667, 323.0, 324.0, 425.6666666666667, 325.6666666666667, 314.3333333333333, 
18:12:46.313999, 314.25, 315.75, 311.75, 324.75, 325.75, 325.75, 329.5, 321.75, 321.25, 320.25, 319.75, 320.0, 
18:12:46.321995, 307.0, 322.25, 316.75, 323.5, 324.25, 326.0, 327.25, 319.75, 320.25, 318.75, 318.25, 321.25, 
18:12:46.329960, 320.3333333333333, 315.6666666666667, 285.3333333333333, 317.6666666666667, 318.0, 322.6666666666667, 326.3333333333333, 314.3333333333333, 319.6666666666667, 425.3333333333333, 311.0, 325.6666666666667, 
18:12:46.337958, 311.25, 319.75, 324.5, 325.0, 327.25, 325.25, 329.5, 322.5, 321.25, 323.5, 321.0, 321.25, 
18:12:46.345978, 324.75, 319.5, 331.75, 322.0, 324.0, 326.75, 328.75, 321.0, 319.25, 333.0, 318.0, 320.0, 
18:12:46.353944, 309.25, 322.25, 330.75, 325.5, 324.25, 324.5, 328.5, 320.5, 319.5, 305.75, 321.5, 321.0, 
18:12:46.361937, 345.0, 337.0, 429.0, 344.0, 336.0, 336.0, 333.5, 334.0, 323.5, 286.0, 333.0, 314.5, 
18:12:46.369937, 315.5, 314.5, 243.0, 314.5, 317.5, 325.0, 330.0, 314.0, 322.5, 406.0, 325.5, 337.0, 
18:12:46.377929, 347.0, 318.5, 400.0, 318.0, 331.0, 323.0, 328.0, 334.5, 327.5, 320.0, 317.0, 297.5, 
18:12:46.385923, 319.0, 313.5, 257.5, 322.0, 316.0, 327.5, 331.0, 307.5, 316.0, 387.0, 314.0, 336.5, 
18:12:46.393917, 344.5, 332.0, 407.5, 325.5, 329.0, 321.0, 324.0, 332.5, 324.0, 321.0, 335.5, 303.5, 
18:12:46.401946, 314.0, 310.0, 247.5, 309.0, 316.5, 319.5, 325.5, 307.5, 311.5, 319.0, 303.5, 325.0, 
18:12:46.409938, 327.0, 303.0, 297.0, 340.0, 324.0, 329.0, 327.0, 324.0, 323.0, 634.0, 340.0, 319.0, 
18:12:46.417903, 336.5, 338.5, 413.5, 328.0, 332.5, 330.0, 330.0, 329.0, 321.0, 7.0, 323.5, 318.5, 
18:12:46.425897, 328.0, 312.5, 239.0, 315.5, 314.5, 322.0, 327.0, 311.5, 320.5, 633.5, 326.0, 323.0, 
18:12:46.433890, 322.5, 329.5, 430.0, 335.5, 335.0, 330.5, 331.0, 331.5, 322.5, 8.0, 324.5, 316.5, 
18:12:46.441913, 298.0, 306.0, 223.0, 309.5, 312.0, 321.5, 325.5, 309.0, 320.0, 635.0, 312.5, 325.5, 
18:12:46.449910, 336.5, 334.5, 425.5, 340.0, 336.0, 330.5, 333.0, 336.0, 324.0, 7.5, 335.5, 315.0, 
18:12:46.457903, 296.5, 306.5, 202.0, 305.0, 308.5, 319.0, 323.5, 305.5, 316.5, 635.5, 294.5, 327.5, 
18:12:46.465898, 340.0, 335.5, 411.5, 341.5, 336.5, 328.5, 328.5, 335.5, 320.0, 6.5, 337.5, 316.0, 
18:12:46.473894, 288.5, 311.0, 225.0, 307.0, 311.0, 321.5, 328.5, 302.0, 312.0, 634.0, 299.5, 321.0, 
18:12:46.481887, 349.5, 328.5, 406.0, 340.5, 339.5, 333.0, 334.0, 340.0, 327.0, 7.5, 339.5, 309.5, 
18:12:46.489882, 295.0, 309.5, 265.5, 310.0, 307.0, 325.0, 326.5, 297.5, 309.5, 633.0, 295.0, 331.5, 
18:12:46.497876, 341.0, 324.5, 406.5, 337.0, 337.0, 329.5, 330.5, 342.0, 329.0, 21.0, 344.5, 314.0, 
18:12:46.505843, 291.5, 305.0, 239.5, 309.5, 313.0, 320.0, 324.0, 306.0, 317.5, 592.0, 309.0, 336.5, 
18:12:46.513839, 339.0, 338.0, 368.0, 335.0, 330.5, 322.5, 328.0, 329.0, 320.0, 140.0, 331.0, 316.0, 
18:12:46.521833, 288.0, 309.0, 221.5, 307.5, 316.0, 331.0, 330.0, 310.5, 322.5, 462.0, 314.5, 333.0, 
18:12:46.529828, 351.5, 333.0, 400.5, 336.0, 332.0, 331.0, 328.5, 335.0, 322.5, 297.0, 331.0, 307.5, 
18:12:46.537822, 310.5, 311.0, 232.0, 311.5, 317.0, 318.0, 328.0, 309.5, 318.5, 394.5, 302.0, 329.0, 
18:12:46.545844, 359.0, 330.0, 399.5, 336.0, 335.5, 333.0, 334.0, 334.5, 324.0, 319.5, 333.0, 312.5, 
18:12:46.553839, 306.5, 309.5, 253.0, 314.0, 315.5, 318.5, 325.5, 306.0, 315.5, 368.0, 308.5, 329.5, 
18:12:46.561804, 355.5, 331.5, 388.0, 336.0, 333.0, 330.5, 331.5, 334.0, 323.5, 319.0, 338.0, 305.0, 
18:12:46.569798, 315.5, 310.0, 251.0, 313.0, 317.0, 324.0, 327.5, 311.5, 319.5, 330.5, 306.0, 329.5, 
18:12:46.577794, 335.0, 331.5, 388.5, 333.5, 330.5, 332.0, 331.0, 332.0, 322.0, 320.5, 334.0, 312.0, 
18:12:46.585817, 310.5, 311.5, 257.0, 314.0, 316.0, 319.0, 325.5, 309.5, 318.0, 319.5, 312.5, 326.5, 
18:12:46.593782, 330.0, 330.0, 372.5, 327.5, 327.5, 330.5, 330.5, 329.5, 322.0, 321.5, 328.0, 310.5, 
18:12:46.601778, 316.0, 314.0, 284.5, 316.0, 318.5, 320.5, 323.5, 311.0, 320.0, 320.0, 314.5, 329.5, 
18:12:46.609771, 299.5, 328.0, 375.5, 329.0, 329.0, 330.5, 329.5, 331.5, 322.0, 319.5, 333.5, 315.0, 
18:12:46.617766, 322.0, 314.0, 276.5, 318.0, 317.5, 320.0, 322.5, 312.5, 317.0, 320.0, 303.5, 331.0, 
18:12:46.625764, 300.5, 327.0, 332.0, 326.5, 326.5, 318.0, 328.0, 326.0, 324.0, 320.5, 333.5, 310.5, 
18:12:46.633786, 340.5, 320.0, 321.0, 322.5, 324.0, 324.5, 329.5, 317.5, 320.0, 319.5, 316.5, 326.5, 
18:12:46.641752, 266.0, 306.0, 172.0, 307.0, 315.0, 318.0, 329.0, 311.0, 320.0, 634.0, 315.0, 319.0, 
18:12:46.649774, 343.0, 338.0, 450.0, 346.0, 340.0, 335.5, 332.0, 338.5, 324.0, 7.5, 332.0, 315.0, 
18:12:46.657778, 296.5, 307.0, 210.0, 305.5, 310.5, 316.5, 324.5, 303.0, 314.0, 634.0, 304.0, 331.0, 
18:12:46.665768, 345.0, 335.0, 440.5, 342.5, 338.5, 335.0, 332.5, 340.5, 327.5, 5.0, 342.5, 312.0, 
18:12:46.673761, 296.5, 306.0, 200.0, 308.0, 314.0, 318.0, 327.5, 306.0, 316.5, 634.0, 301.5, 328.5, 
18:12:46.681723, 339.5, 335.5, 449.0, 339.0, 331.5, 332.0, 332.5, 332.5, 322.0, 130.0, 338.5, 311.5, 
18:12:46.689748, 280.5, 308.0, 192.0, 305.5, 313.0, 320.0, 326.0, 307.0, 316.0, 519.5, 307.5, 330.0, 
18:12:46.697743, 346.5, 337.5, 438.0, 344.0, 338.5, 335.0, 332.5, 337.5, 325.5, 280.0, 339.0, 311.0, 
18:12:46.705739, 306.5, 308.0, 225.0, 305.5, 310.5, 320.5, 327.0, 305.0, 316.0, 424.0, 294.5, 329.5, 
18:12:46.713704, 343.0, 331.0, 398.5, 340.0, 335.0, 332.0, 331.0, 339.0, 329.5, 320.0, 339.5, 313.5, 
18:12:46.721697, 329.0, 308.5, 245.5, 306.5, 312.5, 317.0, 324.0, 301.0, 306.0, 384.0, 321.0, 327.5, 
18:12:46.729722, 323.0, 334.5, 402.0, 335.5, 332.0, 334.0, 332.0, 335.0, 320.5, 320.0, 313.5, 308.5, 
18:12:46.737716, 290.5, 306.5, 258.5, 310.0, 315.5, 321.5, 327.5, 308.0, 315.0, 346.5, 315.5, 329.5, 
18:12:46.745683, 348.0, 327.5, 379.0, 323.0, 327.5, 323.5, 328.5, 329.5, 322.5, 322.0, 324.5, 304.5, 
18:12:46.753676, 333.0, 313.5, 257.5, 319.5, 317.0, 323.5, 327.5, 308.5, 317.5, 320.5, 312.0, 332.0, 
18:12:46.761670, 324.5, 330.5, 382.5, 337.0, 332.5, 332.0, 331.0, 331.0, 323.0, 319.0, 334.0, 316.0, 
18:12:46.769696, 321.5, 311.0, 279.0, 315.0, 320.0, 322.0, 328.0, 311.0, 317.0, 319.5, 305.5, 328.0, 
18:12:46.777661, 310.5, 327.0, 356.0, 332.5, 328.5, 331.5, 331.5, 331.5, 325.5, 320.0, 335.5, 317.5, 
18:12:46.785684, 315.5, 313.5, 300.5, 313.5, 316.0, 321.5, 332.5, 313.5, 316.5, 321.0, 303.0, 319.5, 
18:12:46.793680, 290.5, 330.5, 327.0, 329.5, 326.5, 328.0, 325.0, 325.0, 322.0, 320.5, 328.0, 308.0, 
18:12:46.801673, 340.5, 323.5, 323.5, 314.0, 321.0, 322.0, 332.0, 318.5, 320.0, 320.0, 315.0, 335.0, 
18:12:46.809667, 314.0, 331.5, 313.5, 324.5, 324.0, 333.5, 323.5, 323.5, 322.0, 321.0, 327.5, 321.5, 
18:12:46.817662, 330.0, 314.0, 324.5, 318.0, 321.5, 324.0, 336.5, 316.5, 317.0, 318.5, 307.5, 331.5, 
18:12:46.825656, 323.5, 325.5, 303.5, 325.0, 327.5, 325.0, 326.5, 327.0, 327.0, 320.5, 337.5, 325.5, 
18:12:46.833653, 323.0, 322.0, 368.0, 325.5, 326.0, 324.0, 328.0, 320.5, 318.0, 320.0, 309.0, 295.5, 
18:12:46.841664, 286.5, 319.0, 265.0, 321.5, 322.0, 321.5, 328.5, 317.5, 319.5, 406.5, 319.0, 324.5, 
18:12:46.849612, 340.0, 330.0, 383.0, 327.5, 328.5, 325.0, 329.5, 324.0, 320.0, 169.0, 326.5, 315.0, 
18:12:46.857620, 307.5, 313.5, 263.5, 315.5, 320.0, 325.5, 329.0, 319.5, 325.5, 558.0, 317.5, 322.0, 
18:12:46.865602, 334.0, 325.0, 378.0, 332.5, 328.5, 327.5, 329.5, 325.5, 319.5, 93.0, 323.0, 319.5, 
18:12:46.873630, 325.0, 314.5, 223.0, 316.5, 319.0, 322.5, 326.0, 316.0, 320.0, 634.0, 296.0, 322.0, 
18:12:46.881593, 324.0, 339.0, 429.0, 345.0, 338.0, 333.0, 334.0, 346.0, 327.0, 8.0, 344.0, 313.0, 
18:12:46.889586, 321.5, 304.0, 265.0, 311.0, 313.0, 318.5, 325.5, 305.0, 317.0, 355.5, 313.0, 328.5, 
18:12:46.897581, 322.5, 337.0, 359.5, 335.0, 332.5, 331.5, 331.5, 336.5, 326.5, 322.0, 341.0, 313.5, 
18:12:46.905604, 300.5, 303.0, 282.5, 308.5, 313.5, 323.5, 328.0, 305.5, 314.0, 320.5, 303.5, 327.5, 
18:12:46.913599, 341.0, 337.0, 374.0, 332.5, 332.5, 330.0, 329.5, 333.5, 326.0, 320.0, 336.5, 311.5, 
18:12:46.921565, 327.5, 308.5, 235.5, 311.5, 315.5, 326.0, 329.0, 311.0, 320.0, 320.5, 309.0, 324.0, 
18:12:46.929588, 323.0, 335.0, 363.5, 334.5, 332.0, 329.5, 330.5, 332.5, 327.0, 321.0, 329.0, 312.5, 
18:12:46.937582, 323.0, 311.0, 271.0, 315.0, 318.0, 319.5, 327.0, 310.0, 318.0, 320.0, 315.5, 333.5, 
18:12:46.945548, 299.5, 328.5, 348.5, 330.5, 327.5, 328.5, 329.0, 327.5, 323.5, 321.0, 331.0, 311.5, 
18:12:46.953551, 329.5, 312.5, 257.0, 320.0, 320.0, 323.5, 325.5, 312.5, 316.5, 320.5, 304.5, 333.5, 
18:12:46.961540, 295.0, 332.0, 310.5, 328.0, 328.0, 326.5, 330.5, 326.5, 320.5, 319.5, 335.5, 306.5, 
18:12:46.969561, 336.5, 316.5, 320.0, 318.0, 321.0, 321.5, 326.5, 314.5, 317.5, 321.0, 305.0, 328.5, 
18:12:46.977527, 295.0, 320.0, 250.5, 325.0, 328.0, 330.0, 330.5, 327.0, 323.5, 319.5, 325.5, 317.0, 
18:12:46.985552, 337.5, 325.0, 424.0, 323.5, 325.0, 325.0, 329.5, 319.5, 320.0, 319.5, 322.0, 322.5, 
18:12:46.993545, 305.0, 317.0, 201.5, 319.0, 321.5, 325.5, 327.0, 321.0, 321.5, 387.5, 321.5, 320.0, 
18:12:47.001540, 332.5, 329.5, 478.5, 328.5, 325.5, 325.5, 328.5, 322.5, 321.0, 318.5, 326.0, 326.0, 
18:12:47.009534, 293.0, 310.0, 154.5, 319.5, 321.0, 326.0, 328.0, 319.5, 319.5, 547.0, 316.5, 320.5, 
18:12:47.017529, 331.5, 331.5, 527.5, 332.0, 330.5, 327.5, 330.0, 329.0, 323.0, 168.0, 301.5, 319.0, 
18:12:47.025526, 325.5, 308.0, 181.5, 319.0, 318.0, 325.5, 325.5, 313.0, 318.5, 633.5, 351.0, 325.5, 
18:12:47.033518, 322.5, 330.0, 616.0, 323.5, 330.5, 326.5, 328.5, 326.0, 319.5, 102.0, 304.5, 314.5, 
18:12:47.041512, 326.5, 310.5, 289.5, 317.5, 320.0, 326.5, 327.5, 313.0, 315.5, 634.0, 296.5, 321.0, 
18:12:47.049509, 332.0, 333.0, 488.0, 327.5, 328.5, 324.5, 331.5, 335.0, 331.0, 42.0, 325.0, 319.0, 
18:12:47.057502, 318.0, 298.5, 117.0, 315.0, 316.5, 325.0, 328.0, 315.0, 319.0, 634.0, 316.5, 323.0, 
18:12:47.065497, 335.0, 339.5, 427.0, 341.5, 332.5, 330.0, 330.5, 327.0, 320.0, 6.5, 324.5, 322.0, 
18:12:47.073492, 286.0, 302.5, 124.0, 304.5, 316.5, 324.0, 327.5, 313.5, 323.0, 633.5, 320.0, 326.0, 
18:12:47.081486, 349.5, 340.5, 476.5, 340.5, 333.5, 331.5, 330.5, 330.5, 319.0, 6.0, 314.0, 316.5, 
18:12:47.089489, 330.0, 295.5, 139.5, 307.0, 314.5, 319.5, 327.0, 307.5, 316.5, 632.5, 304.5, 328.0, 
18:12:47.097447, 325.0, 346.5, 461.0, 336.0, 331.5, 324.5, 325.5, 332.0, 318.5, 6.0, 329.5, 318.5, 
18:12:47.105442, 272.5, 302.0, 153.5, 308.0, 312.5, 320.0, 326.5, 306.0, 315.5, 633.5, 304.5, 324.0, 
18:12:47.113436, 346.0, 345.5, 485.0, 346.0, 337.5, 331.5, 336.5, 336.5, 321.5, 7.5, 321.5, 319.0, 
18:12:47.121433, 331.0, 292.0, 133.0, 294.0, 305.0, 325.0, 322.0, 302.0, 316.0, 634.0, 290.0, 334.0, 
18:12:47.129425, 313.0, 321.5, 329.0, 331.5, 328.5, 325.5, 337.5, 327.5, 327.0, 321.0, 338.5, 322.0, 
18:12:47.137420, 330.0, 329.0, 316.5, 321.5, 327.0, 332.5, 337.5, 318.0, 318.5, 319.0, 307.0, 308.0, 
18:12:47.145418, 304.5, 314.0, 300.0, 321.0, 318.5, 301.5, 309.5, 322.5, 323.0, 321.0, 338.0, 321.0, 
18:12:47.153411, 338.5, 328.5, 344.5, 332.0, 330.5, 339.5, 342.5, 321.0, 317.5, 282.0, 309.0, 321.0, 
18:12:47.161406, 298.5, 315.5, 261.0, 312.5, 321.5, 332.5, 327.5, 323.5, 326.5, 376.5, 335.0, 312.0, 
18:12:47.169427, 335.0, 332.5, 378.0, 328.5, 327.5, 323.0, 329.5, 321.0, 313.5, 146.5, 307.5, 318.0, 
18:12:47.177393, 287.5, 311.5, 251.5, 321.5, 321.5, 326.0, 328.5, 317.0, 321.5, 506.5, 320.5, 319.5, 
18:12:47.185389, 338.0, 333.5, 413.5, 334.0, 329.5, 327.0, 330.5, 325.5, 320.0, 50.0, 321.0, 323.0, 
18:12:47.193384, 313.0, 310.0, 211.0, 314.0, 319.0, 323.5, 326.5, 313.5, 318.5, 616.0, 319.0, 323.5, 
18:12:47.201378, 345.0, 330.0, 409.5, 331.0, 331.0, 331.0, 330.5, 330.5, 323.0, 102.0, 320.5, 318.0, 
18:12:47.209373, 333.0, 308.5, 227.0, 317.5, 316.0, 323.5, 327.0, 311.0, 318.5, 633.5, 313.0, 323.5, 
18:12:47.217366, 336.5, 335.0, 443.0, 328.0, 330.5, 327.0, 331.5, 330.0, 318.0, 96.5, 320.5, 315.0, 
18:12:47.225362, 318.5, 304.5, 138.0, 315.0, 317.0, 323.5, 327.0, 316.0, 323.5, 634.0, 316.0, 323.0, 
18:12:47.233357, 331.5, 341.5, 518.0, 334.0, 328.5, 327.5, 330.5, 326.5, 319.0, 7.0, 323.0, 319.0, 
18:12:47.241352, 270.0, 296.0, 94.5, 310.0, 315.0, 322.0, 328.0, 312.0, 320.5, 633.0, 318.0, 322.5, 
18:12:47.249346, 351.5, 347.0, 571.0, 337.0, 331.0, 329.0, 332.0, 332.5, 322.5, 10.5, 329.5, 318.5, 
18:12:47.257341, 295.5, 295.5, 63.0, 310.5, 317.5, 322.5, 332.0, 316.0, 325.5, 636.5, 315.0, 327.5, 
18:12:47.265336, 343.0, 352.0, 608.5, 342.0, 335.5, 331.0, 330.0, 336.5, 326.5, 8.0, 329.5, 316.5, 
18:12:47.273330, 283.5, 285.0, 34.5, 300.0, 312.5, 316.0, 323.5, 306.0, 314.0, 635.0, 311.5, 326.0, 
18:12:47.281325, 342.5, 358.5, 615.0, 350.5, 340.5, 339.5, 336.0, 336.5, 325.0, 6.0, 334.5, 314.5, 
18:12:47.289320, 295.0, 287.5, 120.5, 303.5, 310.5, 313.5, 321.0, 303.5, 318.0, 634.5, 304.5, 324.5, 
18:12:47.297315, 346.5, 354.0, 602.5, 347.5, 338.5, 337.5, 333.5, 336.5, 322.0, 5.5, 343.0, 317.0, 
18:12:47.305309, 331.0, 298.5, 142.0, 314.0, 314.0, 321.5, 325.5, 304.5, 315.5, 632.5, 305.5, 333.0, 
18:12:47.313304, 325.5, 350.5, 483.0, 336.0, 334.5, 327.0, 330.5, 338.0, 325.0, 71.0, 340.0, 309.0, 
18:12:47.321298, 267.5, 294.5, 162.5, 312.5, 315.5, 322.0, 327.5, 305.0, 319.0, 631.0, 299.5, 330.0, 
18:12:47.329293, 353.5, 347.5, 470.0, 340.5, 333.0, 338.0, 332.5, 331.5, 321.0, 212.0, 338.0, 313.0, 
18:12:47.337291, 303.0, 297.0, 177.5, 303.5, 313.0, 318.0, 327.5, 308.0, 318.5, 469.0, 305.0, 327.5, 
18:12:47.345282, 344.5, 342.5, 437.0, 338.5, 333.5, 334.0, 331.0, 335.5, 323.0, 320.5, 330.5, 308.5, 
18:12:47.353279, 324.0, 306.5, 222.5, 312.5, 316.0, 321.0, 326.0, 309.0, 319.5, 405.0, 309.5, 335.5, 
18:12:47.361275, 344.0, 332.0, 396.5, 331.5, 332.5, 332.5, 333.5, 336.0, 324.5, 320.0, 338.5, 306.5, 
18:12:47.369296, 303.5, 305.0, 234.5, 312.5, 315.0, 319.0, 325.0, 306.5, 314.5, 339.5, 301.5, 331.5, 
18:12:47.377261, 347.0, 336.5, 410.5, 337.0, 333.0, 329.0, 331.5, 332.0, 325.5, 322.0, 344.5, 315.0, 
18:12:47.385280, 334.0, 315.0, 307.0, 320.0, 318.0, 325.0, 320.0, 311.0, 314.0, 7.0, 313.0, 326.0, 
18:12:47.393279, 296.5, 304.5, 192.0, 311.5, 315.5, 323.5, 327.5, 314.5, 322.5, 634.5, 308.0, 323.5, 
18:12:47.401274, 348.0, 334.5, 444.0, 335.0, 333.0, 332.5, 333.0, 330.0, 320.5, 7.0, 328.0, 315.5, 
18:12:47.409273, 285.5, 303.5, 211.0, 310.5, 316.0, 323.5, 329.0, 315.0, 320.0, 633.5, 313.0, 323.5, 
18:12:47.417235, 348.5, 338.0, 425.0, 336.5, 333.5, 329.0, 330.0, 330.0, 317.5, 5.5, 324.0, 318.5, 
18:12:47.425229, 303.5, 298.0, 194.5, 311.5, 316.0, 322.0, 327.5, 309.5, 319.5, 633.5, 310.0, 322.5, 
18:12:47.433222, 333.5, 344.5, 450.0, 339.5, 336.5, 330.5, 331.0, 334.0, 323.0, 7.5, 331.0, 316.0, 
18:12:47.441219, 274.5, 299.5, 182.5, 310.0, 314.5, 320.5, 327.0, 307.0, 318.0, 633.5, 308.0, 325.0, 
18:12:47.449213, 346.5, 346.5, 458.0, 342.0, 336.0, 331.0, 330.5, 334.5, 322.5, 7.5, 330.5, 316.0, 
18:12:47.457211, 297.5, 302.0, 201.5, 304.0, 311.5, 319.5, 327.0, 307.5, 319.5, 634.0, 309.5, 330.0, 
18:12:47.465201, 344.5, 337.5, 436.0, 338.0, 339.0, 332.5, 331.5, 338.0, 324.0, 8.0, 333.0, 312.5, 
18:12:47.473198, 310.0, 308.0, 208.5, 309.0, 314.0, 321.5, 326.5, 303.5, 318.5, 635.0, 304.0, 327.0, 
18:12:47.481190, 331.0, 339.0, 441.0, 339.0, 336.0, 331.0, 331.5, 337.5, 322.5, 44.0, 337.5, 310.5, 
18:12:47.489186, 288.5, 305.0, 223.0, 311.5, 315.5, 321.5, 325.5, 310.0, 319.5, 595.5, 304.0, 328.5, 
18:12:47.497191, 339.0, 340.5, 414.0, 339.0, 334.5, 331.0, 330.5, 333.0, 321.0, 181.0, 338.5, 321.0, 
18:12:47.505177, 294.5, 303.0, 221.0, 310.0, 314.5, 320.5, 324.5, 308.0, 317.0, 477.5, 306.5, 330.5, 
18:12:47.513169, 335.5, 334.0, 407.5, 336.5, 335.0, 333.5, 333.5, 337.0, 325.5, 297.0, 332.0, 307.5, 
18:12:47.521165, 313.0, 310.5, 250.5, 312.5, 313.5, 320.0, 327.0, 304.5, 316.5, 417.5, 307.5, 325.5, 
18:12:47.529159, 341.0, 333.0, 392.0, 334.0, 332.5, 331.0, 330.0, 332.5, 324.0, 321.5, 336.0, 316.5, 
18:12:47.537175, 314.0, 306.0, 250.5, 315.0, 318.0, 320.5, 326.5, 308.5, 318.0, 359.5, 308.0, 323.5, 
18:12:47.545149, 333.0, 335.0, 382.5, 332.0, 330.5, 331.0, 333.5, 334.0, 323.5, 321.0, 334.0, 315.0, 
18:12:47.553143, 299.5, 311.0, 251.0, 311.0, 314.0, 320.0, 327.5, 311.0, 319.0, 319.5, 308.5, 329.0, 
18:12:47.561142, 344.0, 327.5, 387.0, 331.0, 332.0, 331.5, 331.0, 329.5, 324.5, 322.0, 334.5, 316.0, 
18:12:47.569133, 314.0, 310.5, 253.0, 314.0, 316.0, 319.0, 326.0, 308.0, 319.0, 320.0, 309.0, 329.5, 
18:12:47.577127, 328.0, 332.0, 372.5, 332.5, 330.5, 329.5, 329.5, 330.0, 323.5, 320.5, 331.0, 316.5, 
18:12:47.585123, 326.5, 315.5, 278.0, 317.5, 319.5, 320.5, 327.5, 315.0, 317.5, 320.5, 307.5, 324.0, 
18:12:47.593153, 314.5, 325.5, 354.0, 329.0, 330.0, 330.0, 329.5, 330.5, 323.0, 320.0, 332.0, 317.0, 
18:12:47.601112, 333.5, 313.5, 290.5, 318.0, 324.0, 324.0, 329.5, 315.5, 318.5, 320.0, 310.5, 328.5, 
18:12:47.609106, 247.0, 307.0, 222.0, 312.0, 314.0, 324.0, 330.0, 318.0, 321.0, 634.0, 315.0, 320.0, 
18:12:47.617103, 346.0, 340.5, 439.0, 340.5, 336.0, 331.5, 331.0, 334.0, 320.0, 7.0, 333.0, 315.0, 
18:12:47.625095, 295.0, 292.5, 220.5, 309.0, 313.5, 319.0, 321.5, 306.0, 321.5, 635.0, 312.0, 329.0, 
18:12:47.633090, 345.5, 341.0, 413.5, 341.5, 337.5, 332.5, 334.0, 336.5, 320.0, 7.0, 325.5, 319.0, 
18:12:47.641113, 329.0, 305.0, 248.5, 307.5, 312.5, 320.0, 325.0, 304.5, 318.5, 632.5, 310.5, 326.0, 
18:12:47.649109, 324.0, 333.0, 402.5, 338.5, 335.5, 333.5, 331.5, 335.5, 321.5, 32.0, 338.0, 315.5, 
18:12:47.657102, 324.0, 306.0, 240.0, 310.0, 314.5, 319.0, 325.0, 305.0, 317.0, 620.0, 306.0, 327.0, 
18:12:47.665068, 321.0, 339.0, 417.5, 340.0, 336.5, 332.0, 331.5, 336.0, 323.0, 154.0, 336.5, 311.5, 
18:12:47.673092, 283.0, 300.5, 240.5, 311.0, 313.0, 320.0, 326.0, 307.5, 318.5, 485.5, 306.0, 328.5, 
18:12:47.681093, 345.5, 339.5, 398.5, 337.5, 334.5, 332.5, 331.0, 334.5, 324.0, 294.0, 336.5, 316.5, 
18:12:47.689052, 327.5, 306.0, 239.0, 308.5, 314.0, 320.0, 325.5, 307.0, 319.5, 437.5, 307.5, 327.5, 
18:12:47.697047, 336.0, 332.0, 384.0, 334.0, 330.5, 331.0, 331.0, 334.5, 325.0, 321.5, 335.5, 317.0, 
18:12:47.705074, 314.0, 304.5, 265.0, 314.5, 319.0, 324.0, 330.0, 307.5, 315.5, 389.0, 303.5, 324.5, 
18:12:47.713040, 346.0, 328.0, 381.5, 328.0, 332.0, 329.0, 331.0, 336.5, 327.0, 320.0, 337.0, 310.5, 
18:12:47.721031, 298.5, 315.5, 255.5, 330.0, 318.5, 323.5, 329.0, 309.0, 317.0, 329.5, 312.0, 335.5, 
18:12:47.729028, 343.0, 333.0, 377.5, 323.5, 329.0, 325.5, 329.5, 331.5, 322.0, 321.0, 330.0, 308.5, 
18:12:47.737052, 322.0, 311.0, 263.5, 310.0, 316.0, 322.0, 327.5, 309.0, 321.5, 320.5, 312.0, 325.0, 
18:12:47.745047, 336.5, 326.5, 332.5, 333.5, 332.5, 331.5, 330.5, 330.5, 321.5, 319.0, 328.0, 319.5, 
18:12:47.753044, 327.0, 315.5, 305.0, 321.5, 315.0, 316.5, 323.5, 312.5, 318.5, 321.5, 311.5, 333.0, 
18:12:47.761003, 323.5, 323.0, 347.0, 321.0, 330.0, 326.0, 330.0, 330.0, 321.0, 321.0, 328.5, 316.0, 
18:12:47.769028, 309.5, 307.5, 297.5, 322.5, 322.0, 322.5, 329.0, 313.5, 314.5, 319.5, 305.5, 330.0, 
18:12:47.777028, 299.5, 331.5, 378.0, 313.5, 327.0, 326.5, 328.5, 327.0, 324.0, 320.5, 338.5, 309.5, 
18:12:47.785017, 332.5, 313.5, 301.5, 330.5, 322.5, 329.5, 331.0, 316.0, 318.0, 318.0, 314.5, 330.0, 
18:12:47.792985, 323.5, 325.5, 321.0, 326.0, 323.0, 323.5, 327.5, 324.5, 322.0, 322.5, 327.5, 314.0, 
18:12:47.800980, 322.0, 321.0, 322.0, 320.5, 322.5, 320.5, 325.5, 317.0, 319.0, 320.0, 317.5, 324.0, 
18:12:47.808973, 316.5, 314.5, 317.0, 322.0, 326.0, 330.5, 329.5, 323.5, 324.0, 357.5, 328.0, 321.5, 
18:12:47.816969, 323.0, 321.0, 328.0, 326.0, 326.5, 326.0, 329.0, 321.5, 319.0, 294.5, 314.5, 323.5, 
18:12:47.824991, 288.5, 316.5, 292.0, 324.0, 322.0, 326.5, 328.5, 321.5, 321.0, 456.5, 324.5, 320.5, 
18:12:47.832999, 338.0, 336.0, 431.0, 341.0, 334.0, 330.0, 333.0, 339.0, 324.0, 8.0, 340.0, 316.0, 
18:12:47.840987, 284.0, 307.0, 252.0, 313.0, 315.0, 321.5, 327.5, 309.5, 321.5, 510.5, 305.0, 329.0, 
18:12:47.848975, 345.0, 337.0, 390.5, 328.5, 334.0, 328.0, 329.5, 334.0, 326.5, 253.0, 337.5, 304.5, 
18:12:47.856973, 301.5, 308.0, 258.5, 315.0, 315.5, 321.5, 326.0, 306.0, 318.0, 424.5, 304.0, 329.0, 
18:12:47.864966, 339.0, 334.5, 374.5, 336.5, 333.5, 333.0, 332.0, 339.0, 326.0, 310.0, 335.5, 314.5, 
18:12:47.872959, 327.0, 307.0, 267.5, 310.0, 314.5, 320.5, 328.5, 309.5, 318.5, 379.5, 310.0, 320.5, 
18:12:47.880924, 324.0, 331.5, 371.5, 331.5, 331.5, 329.5, 330.0, 332.0, 321.0, 319.0, 332.5, 313.0, 
18:12:47.888920, 304.5, 315.0, 254.5, 317.5, 317.5, 321.5, 325.5, 308.5, 318.5, 341.5, 302.5, 334.5, 
18:12:47.896942, 332.0, 341.0, 388.5, 328.0, 328.5, 327.0, 331.0, 330.5, 322.0, 320.5, 335.0, 307.5, 
18:12:47.904942, 326.5, 307.0, 253.5, 316.0, 318.0, 322.5, 325.0, 310.5, 318.5, 318.5, 303.5, 328.0, 
18:12:47.912903, 320.5, 335.5, 369.0, 333.5, 332.5, 334.0, 334.5, 333.5, 325.0, 320.5, 336.0, 316.5, 
18:12:47.920897, 306.5, 312.5, 284.5, 313.5, 319.0, 319.0, 325.0, 309.0, 316.0, 319.5, 307.0, 327.0, 
18:12:47.928894, 328.0, 330.5, 354.5, 331.0, 328.5, 329.5, 334.5, 332.0, 324.0, 320.0, 330.0, 314.5, 
18:12:47.936916, 333.0, 307.0, 292.0, 313.0, 318.5, 319.0, 325.5, 311.0, 321.0, 322.0, 318.0, 318.0, 
18:12:47.944913, 298.0, 318.5, 328.5, 326.0, 327.0, 326.5, 327.0, 327.0, 320.5, 320.0, 324.0, 325.0, 
18:12:47.952905, 334.5, 316.0, 300.0, 320.0, 322.0, 326.0, 330.5, 314.0, 319.0, 320.5, 313.0, 320.0, 
18:12:47.960900, 327.5, 328.0, 350.5, 326.5, 324.5, 326.0, 327.5, 326.0, 322.5, 320.0, 329.5, 314.0, 
18:12:47.968895, 321.0, 319.0, 321.0, 322.0, 322.5, 323.5, 330.0, 317.5, 316.5, 320.5, 308.5, 323.5, 
18:12:47.976888, 313.5, 320.0, 313.0, 324.5, 324.0, 328.5, 332.5, 327.0, 324.5, 341.0, 329.0, 316.0, 
18:12:47.984886, 330.5, 321.5, 281.0, 326.0, 326.5, 326.0, 328.5, 319.0, 319.0, 320.0, 313.0, 319.0, 
18:12:47.992879, 307.0, 320.0, 321.5, 319.0, 321.0, 324.5, 327.0, 319.0, 318.5, 427.5, 322.5, 315.5, 
18:12:48.000844, 338.5, 325.0, 341.5, 327.5, 327.0, 325.5, 329.0, 320.5, 317.5, 263.0, 317.0, 327.0, 
18:12:48.008839, 301.0, 318.5, 283.5, 320.5, 320.0, 325.5, 326.0, 318.0, 322.0, 505.5, 319.0, 316.5, 
18:12:48.016833, 334.0, 333.5, 355.0, 331.5, 329.0, 328.0, 330.0, 325.0, 319.5, 143.5, 318.5, 319.0, 
18:12:48.024828, 302.5, 316.5, 295.5, 319.0, 321.0, 326.5, 328.5, 317.0, 322.5, 620.5, 326.5, 320.0, 
18:12:48.032823, 333.0, 326.5, 385.5, 330.0, 327.5, 325.5, 328.0, 323.5, 317.5, 82.5, 322.0, 314.0, 
18:12:48.040817, 326.5, 324.0, 278.0, 315.5, 317.5, 321.5, 328.0, 316.5, 323.0, 633.0, 318.5, 324.0, 
18:12:48.048812, 323.0, 337.0, 435.0, 341.0, 340.0, 334.0, 333.0, 343.0, 325.0, 7.0, 350.0, 315.0, 
18:12:48.056806, 300.0, 304.5, 269.0, 314.0, 313.0, 319.0, 324.5, 305.5, 315.5, 361.5, 301.5, 328.0, 
18:12:48.064832, 347.0, 336.0, 368.0, 334.0, 332.5, 332.0, 332.5, 335.0, 325.5, 321.0, 340.0, 318.0, 
18:12:48.072827, 331.5, 311.5, 263.0, 313.0, 316.0, 320.0, 326.5, 308.0, 316.0, 320.0, 305.5, 325.0, 
18:12:48.080821, 324.5, 327.5, 375.5, 336.0, 333.0, 331.0, 331.0, 330.5, 322.0, 319.5, 338.0, 313.0, 
18:12:48.088815, 306.0, 310.0, 259.5, 311.5, 318.5, 319.5, 325.0, 309.5, 318.5, 319.5, 305.0, 320.0, 
18:12:48.096780, 333.0, 329.5, 369.0, 334.0, 329.0, 329.5, 328.5, 328.5, 319.5, 321.0, 334.0, 319.0, 
18:12:48.104775, 329.5, 310.5, 261.0, 313.0, 320.0, 324.0, 331.0, 314.5, 321.5, 321.0, 310.5, 326.0, 
18:12:48.112770, 324.5, 334.0, 360.5, 329.0, 325.0, 329.5, 330.0, 329.5, 321.0, 320.0, 331.0, 316.5, 
18:12:48.120793, 321.5, 312.0, 290.5, 317.0, 323.0, 322.0, 329.0, 314.5, 319.0, 320.0, 308.5, 328.5, 
18:12:48.128762, 295.5, 326.0, 355.0, 328.5, 328.0, 329.5, 329.5, 327.0, 324.5, 321.5, 332.5, 317.5, 
18:12:48.136784, 329.0, 318.0, 310.0, 320.5, 323.5, 323.5, 328.5, 316.0, 316.5, 318.5, 312.0, 323.0, 
18:12:48.144750, 303.5, 325.0, 323.5, 325.5, 324.0, 328.5, 328.5, 324.5, 322.5, 319.0, 327.0, 319.0, 
18:12:48.152773, 330.5, 321.5, 352.0, 321.5, 322.0, 324.0, 329.5, 320.0, 321.0, 321.0, 317.5, 327.5, 
18:12:48.160737, 317.5, 321.0, 266.5, 323.0, 321.5, 328.0, 330.0, 323.5, 322.5, 359.5, 324.5, 326.5, 
18:12:48.168732, 324.0, 325.5, 382.5, 323.0, 328.0, 322.5, 328.0, 325.0, 321.0, 305.5, 320.0, 324.5, 
18:12:48.176727, 323.0, 317.0, 252.0, 313.5, 321.0, 327.5, 330.0, 318.0, 322.5, 469.5, 324.0, 318.0, 
18:12:48.184723, 322.0, 327.0, 389.0, 329.5, 328.5, 327.0, 329.5, 323.5, 318.0, 174.0, 313.5, 319.5, 
18:12:48.192745, 323.0, 316.0, 242.0, 317.5, 318.0, 323.0, 327.0, 318.5, 323.5, 584.0, 324.5, 322.0, 
18:12:48.200741, 321.0, 327.5, 412.5, 329.5, 332.5, 328.5, 332.0, 327.5, 323.0, 93.5, 325.0, 321.0, 
18:12:48.208735, 321.0, 315.5, 239.5, 319.0, 317.5, 324.5, 325.5, 313.5, 320.0, 626.5, 315.0, 320.5, 
18:12:48.216729, 321.5, 326.0, 408.0, 327.5, 328.5, 327.5, 330.5, 328.0, 319.0, 38.5, 325.5, 313.5, 
18:12:48.224750, 311.5, 310.0, 240.0, 317.5, 317.5, 322.0, 327.5, 313.5, 318.5, 634.5, 313.0, 321.5, 
18:12:48.232721, 335.5, 322.5, 417.0, 328.0, 327.0, 320.0, 326.5, 328.0, 315.5, 6.0, 322.5, 306.5, 
18:12:48.240715, 313.0, 302.5, 216.5, 310.5, 320.5, 325.0, 330.0, 317.5, 324.0, 634.5, 319.5, 320.5, 
18:12:48.248679, 335.5, 329.0, 454.0, 335.5, 333.5, 327.5, 328.0, 330.0, 323.5, 5.5, 325.5, 319.5, 
18:12:48.256675, 309.0, 306.5, 223.5, 315.0, 317.0, 323.0, 328.5, 310.5, 316.5, 633.5, 310.0, 318.0, 
18:12:48.264668, 337.0, 331.5, 442.5, 334.5, 335.5, 331.5, 334.0, 332.0, 319.5, 6.0, 326.5, 322.5, 
18:12:48.272667, 326.5, 305.0, 207.5, 309.5, 310.5, 319.5, 324.5, 307.5, 320.0, 634.0, 316.0, 326.0, 
18:12:48.280660, 323.0, 354.0, 462.0, 340.0, 340.0, 339.0, 336.0, 342.0, 322.0, 7.0, 334.0, 314.0, 
18:12:48.288683, 308.5, 309.0, 287.0, 324.5, 323.0, 326.5, 331.0, 313.0, 319.0, 319.5, 319.5, 322.0, 
18:12:48.296676, 288.5, 329.0, 324.5, 326.0, 324.0, 327.0, 328.0, 327.5, 320.5, 319.5, 309.0, 319.0, 
18:12:48.304641, 337.5, 319.0, 306.5, 324.5, 320.5, 325.5, 329.5, 318.5, 322.5, 322.0, 317.0, 324.5, 
18:12:48.312636, 305.5, 314.0, 315.5, 317.0, 325.0, 317.0, 325.0, 323.0, 321.0, 320.5, 328.0, 317.0, 
18:12:48.320660, 334.0, 331.0, 352.5, 318.0, 324.0, 327.0, 329.5, 316.0, 314.5, 318.5, 311.5, 318.5, 
18:12:48.328629, 310.5, 289.5, 276.0, 326.0, 325.0, 328.0, 329.5, 322.0, 322.5, 353.0, 324.0, 324.0, 
18:12:48.336650, 334.5, 332.0, 347.5, 328.5, 327.5, 325.5, 330.0, 320.5, 319.5, 320.0, 319.0, 322.5, 
18:12:48.344643, 287.5, 319.0, 302.0, 321.0, 321.0, 325.5, 327.0, 318.0, 321.5, 441.5, 321.5, 315.5, 
18:12:48.352639, 341.5, 326.5, 352.0, 328.0, 327.5, 326.0, 328.5, 322.0, 317.5, 200.5, 314.5, 323.0, 
18:12:48.360633, 307.5, 318.0, 284.0, 319.0, 319.0, 326.0, 328.5, 318.5, 322.5, 565.0, 325.5, 316.5, 
18:12:48.368630, 327.0, 329.0, 356.5, 328.0, 328.0, 328.0, 331.0, 325.5, 322.5, 110.5, 323.5, 326.0, 
18:12:48.376622, 311.5, 310.0, 279.5, 317.0, 319.0, 322.0, 326.0, 314.5, 321.0, 622.0, 316.5, 329.0, 
18:12:48.384617, 336.0, 326.5, 365.0, 327.5, 329.5, 330.0, 332.5, 329.0, 323.0, 65.5, 327.5, 323.5, 
18:12:48.392613, 324.5, 302.0, 294.5, 318.0, 318.0, 326.0, 327.0, 314.0, 322.0, 635.0, 318.5, 318.5, 
18:12:48.400580, 333.5, 329.0, 348.0, 325.0, 329.5, 328.5, 331.5, 328.5, 320.5, 6.5, 322.5, 315.0, 
18:12:48.408602, 314.5, 300.5, 270.5, 320.5, 317.5, 324.0, 327.5, 311.0, 318.0, 634.0, 315.5, 324.5, 
18:12:48.416596, 337.0, 334.0, 389.5, 328.5, 334.5, 326.0, 331.0, 329.5, 321.5, 7.0, 326.0, 316.0, 
18:12:48.424590, 307.5, 309.0, 245.0, 314.5, 314.0, 322.5, 326.5, 312.5, 324.0, 635.0, 321.0, 327.5, 
18:12:48.432587, 340.5, 327.5, 412.5, 333.0, 332.0, 329.0, 331.0, 329.0, 318.5, 7.0, 321.5, 313.0, 
18:12:48.440552, 328.0, 311.5, 232.0, 312.5, 317.0, 323.0, 327.0, 311.0, 322.5, 633.0, 315.0, 322.5, 
18:12:48.448545, 324.0, 332.0, 405.0, 334.0, 333.5, 330.5, 330.0, 331.0, 318.5, 4.5, 324.5, 317.0, 
18:12:48.456540, 297.0, 307.5, 232.0, 310.0, 312.5, 323.5, 327.0, 307.5, 318.5, 633.5, 306.5, 328.0, 
18:12:48.464535, 335.0, 340.5, 415.5, 341.0, 341.0, 335.5, 336.0, 339.5, 326.5, 7.5, 335.0, 317.0, 
18:12:48.472530, 302.5, 302.5, 210.0, 308.0, 313.0, 319.5, 325.0, 307.0, 319.5, 635.0, 308.5, 327.5, 
18:12:48.480524, 335.5, 338.0, 435.5, 341.0, 335.0, 331.0, 331.0, 334.5, 323.0, 7.0, 337.5, 313.5, 
18:12:48.488519, 298.0, 305.0, 229.5, 310.0, 311.0, 317.5, 324.0, 302.5, 315.0, 632.5, 300.0, 328.0, 
18:12:48.496515, 339.5, 336.5, 406.0, 336.5, 336.0, 332.0, 332.0, 339.5, 324.0, 15.5, 339.5, 314.5, 
18:12:48.504508, 290.0, 305.5, 240.5, 313.0, 315.5, 319.5, 325.5, 304.5, 316.5, 632.5, 303.0, 330.5, 
18:12:48.512506, 339.5, 335.5, 394.0, 333.5, 331.0, 330.0, 330.0, 333.5, 321.0, 95.0, 330.5, 312.5, 
18:12:48.520528, 328.0, 309.0, 271.0, 308.0, 316.0, 319.0, 326.0, 307.0, 316.0, 452.0, 316.0, 325.0, 
18:12:48.528495, 296.5, 315.0, 250.0, 319.5, 322.5, 325.0, 328.0, 319.5, 325.0, 517.5, 320.0, 325.0, 
18:12:48.536516, 333.5, 326.0, 387.0, 330.0, 330.0, 329.5, 332.0, 327.0, 320.0, 113.0, 322.5, 322.0, 
18:12:48.544511, 308.5, 316.0, 262.0, 321.5, 319.5, 325.0, 327.5, 316.5, 321.5, 611.5, 318.0, 324.0, 
18:12:48.552506, 335.0, 327.0, 390.5, 331.0, 329.5, 327.5, 328.5, 326.0, 321.0, 84.5, 325.0, 319.0, 
18:12:48.560507, 326.5, 316.0, 273.5, 317.0, 317.0, 322.0, 326.5, 313.5, 319.5, 633.5, 315.5, 323.5, 
18:12:48.568495, 322.5, 327.0, 366.0, 329.0, 329.0, 328.5, 331.5, 329.5, 320.5, 35.0, 326.5, 319.0, 
18:12:48.576489, 315.0, 313.5, 257.0, 317.0, 321.0, 325.0, 327.5, 314.5, 320.5, 634.0, 316.0, 325.5, 
18:12:48.584485, 331.5, 329.0, 395.5, 330.5, 331.5, 327.0, 330.0, 328.0, 320.5, 6.5, 327.5, 317.5, 
18:12:48.592478, 306.5, 309.0, 221.0, 315.5, 316.0, 325.0, 328.5, 313.0, 320.0, 633.0, 313.5, 328.0, 
18:12:48.600474, 337.0, 331.0, 413.0, 333.0, 331.0, 327.0, 329.5, 329.5, 321.0, 7.5, 324.5, 312.5, 
18:12:48.608441, 299.0, 319.5, 199.5, 312.5, 313.5, 320.0, 327.0, 312.5, 320.5, 634.5, 316.5, 333.5, 
18:12:48.616464, 337.5, 318.5, 432.5, 333.5, 334.5, 330.5, 331.5, 332.5, 320.0, 6.0, 325.5, 317.0, 
18:12:48.624459, 317.0, 304.5, 209.0, 311.0, 315.0, 321.0, 326.0, 306.0, 315.5, 633.0, 306.0, 331.5, 
18:12:48.632422, 327.0, 336.0, 448.5, 339.0, 334.0, 332.0, 333.0, 336.0, 324.0, 6.5, 330.0, 310.5, 
18:12:48.640447, 294.5, 304.5, 169.5, 304.5, 310.0, 318.0, 327.0, 305.5, 321.0, 635.0, 311.5, 320.0, 
18:12:48.648414, 338.5, 338.5, 479.0, 342.5, 339.0, 332.5, 333.0, 339.0, 323.5, 8.0, 331.0, 314.0, 
18:12:48.656408, 291.0, 305.5, 188.0, 306.0, 308.0, 317.0, 323.5, 302.0, 318.5, 636.0, 309.5, 329.5, 
18:12:48.664403, 343.0, 335.5, 458.5, 341.5, 339.0, 333.5, 334.0, 345.5, 325.5, 8.0, 334.5, 313.0, 
18:12:48.672426, 283.0, 308.0, 206.0, 309.0, 310.0, 319.0, 325.5, 301.5, 315.5, 634.5, 304.0, 328.0, 
18:12:48.680420, 353.5, 335.0, 439.5, 336.5, 333.5, 330.0, 330.5, 337.5, 323.5, 72.0, 339.5, 313.5, 
18:12:48.688417, 281.0, 307.5, 208.5, 310.0, 314.0, 319.0, 326.5, 307.5, 317.0, 612.0, 304.0, 330.0, 
18:12:48.696382, 348.5, 335.5, 449.5, 339.0, 336.0, 332.0, 331.5, 335.0, 323.0, 184.0, 338.0, 312.0, 
18:12:48.704377, 330.5, 305.5, 191.0, 307.5, 315.0, 321.0, 327.0, 307.0, 318.0, 478.5, 308.5, 329.0, 
18:12:48.712376, 324.5, 334.5, 440.0, 339.0, 337.0, 332.5, 330.5, 337.0, 325.0, 299.0, 333.0, 318.5, 
18:12:48.720364, 322.0, 307.5, 218.0, 307.0, 311.5, 317.5, 324.0, 305.5, 316.0, 397.5, 305.5, 326.0, 
18:12:48.728359, 333.0, 328.0, 355.0, 332.0, 327.0, 330.0, 329.0, 323.0, 317.0, 632.0, 323.0, 319.0, 
18:12:48.736354, 325.0, 328.0, 398.0, 331.5, 332.5, 330.5, 331.0, 331.5, 328.0, 44.5, 327.5, 325.0, 
18:12:48.744348, 324.5, 306.0, 239.5, 316.5, 318.5, 323.5, 325.5, 310.5, 319.5, 634.5, 313.0, 321.5, 
18:12:48.752344, 322.0, 327.5, 418.5, 332.0, 329.5, 327.0, 331.0, 329.5, 323.5, 9.0, 329.5, 327.5, 
18:12:48.760339, 323.0, 314.0, 201.0, 314.0, 315.0, 325.0, 329.5, 315.5, 323.0, 635.5, 318.5, 325.0, 
18:12:48.768333, 322.0, 330.0, 456.5, 332.0, 330.5, 326.5, 330.5, 330.0, 320.5, 7.0, 326.0, 314.5, 
18:12:48.776328, 305.0, 310.5, 174.5, 311.0, 318.0, 324.0, 326.5, 310.5, 320.0, 633.0, 315.5, 326.5, 
18:12:48.784323, 336.5, 332.0, 482.0, 337.5, 338.0, 330.0, 331.5, 334.5, 323.5, 7.5, 328.0, 318.0, 
18:12:48.792317, 326.5, 309.5, 152.5, 308.5, 311.0, 320.5, 326.5, 307.0, 318.5, 634.0, 313.5, 325.0, 
18:12:48.800312, 324.0, 336.0, 513.0, 341.0, 332.5, 329.5, 329.5, 333.5, 322.0, 6.5, 331.5, 318.0, 
18:12:48.808307, 296.5, 306.5, 121.0, 305.5, 311.5, 319.5, 325.0, 306.0, 318.0, 632.0, 308.5, 329.0, 
18:12:48.816301, 334.5, 335.5, 528.0, 342.0, 338.0, 331.5, 332.0, 339.0, 323.5, 7.0, 335.5, 312.0, 
18:12:48.824296, 295.0, 306.5, 123.5, 303.5, 309.5, 320.0, 329.0, 306.0, 318.5, 634.0, 305.5, 331.0, 
18:12:48.832291, 339.5, 335.5, 505.0, 343.5, 335.5, 332.0, 329.5, 338.5, 324.0, 6.5, 336.0, 315.5, 
18:12:48.840285, 308.0, 307.5, 160.0, 308.0, 314.5, 319.0, 326.5, 302.5, 314.5, 633.0, 301.5, 330.0, 
18:12:48.848279, 335.0, 329.5, 485.0, 338.5, 333.5, 330.0, 330.5, 338.5, 324.5, 57.0, 340.0, 304.5, 
18:12:48.856275, 326.0, 307.5, 139.5, 309.0, 315.5, 321.0, 326.5, 305.0, 317.0, 617.5, 296.0, 330.5, 
18:12:48.864270, 323.5, 335.5, 488.5, 340.0, 333.0, 332.0, 331.0, 335.5, 322.5, 184.5, 337.0, 309.5, 
18:12:48.872265, 288.5, 308.0, 150.5, 307.0, 312.5, 319.5, 325.0, 308.0, 320.0, 466.5, 309.0, 331.5, 
18:12:48.880259, 335.0, 332.5, 497.0, 342.0, 335.5, 333.0, 331.0, 335.0, 322.0, 302.0, 334.5, 314.0, 
18:12:48.888252, 323.5, 309.5, 196.0, 309.0, 314.5, 319.0, 327.5, 308.5, 319.5, 406.0, 305.5, 323.5, 
18:12:48.896248, 331.0, 332.5, 451.0, 336.0, 332.0, 332.0, 331.0, 336.5, 325.0, 320.5, 337.0, 318.5, 
18:12:48.904243, 296.5, 309.5, 186.0, 310.0, 319.0, 323.0, 327.5, 308.5, 317.0, 344.5, 304.5, 325.5, 
18:12:48.912266, 345.5, 333.5, 437.5, 336.0, 333.0, 332.0, 331.0, 331.0, 323.0, 320.5, 329.5, 313.0, 
18:12:48.920260, 307.5, 309.5, 232.5, 311.0, 318.0, 319.0, 328.0, 310.0, 318.0, 320.0, 310.5, 325.0, 
18:12:48.928228, 336.5, 332.5, 392.5, 336.5, 331.0, 333.5, 330.5, 331.0, 325.0, 321.0, 333.5, 321.5, 
18:12:48.936223, 317.5, 311.5, 274.5, 311.0, 318.0, 320.5, 328.5, 312.5, 318.0, 320.0, 308.0, 328.0, 
18:12:48.944217, 316.0, 329.5, 332.0, 331.5, 328.0, 330.0, 329.0, 330.5, 326.0, 320.5, 335.0, 320.0, 
18:12:48.952212, 330.5, 314.0, 320.0, 317.5, 321.0, 322.0, 328.5, 313.5, 317.0, 321.0, 307.0, 324.0, 
18:12:48.960207, 326.5, 327.0, 303.0, 331.5, 327.5, 333.0, 331.0, 326.5, 322.0, 322.0, 333.5, 323.0, 
18:12:48.968202, 324.0, 319.5, 343.5, 317.5, 323.0, 321.5, 326.5, 316.5, 318.5, 321.5, 312.5, 319.5, 
18:12:48.976221, 308.5, 322.0, 237.0, 326.0, 326.5, 333.0, 332.5, 324.5, 322.0, 326.5, 326.0, 317.5, 
18:12:48.984217, 332.0, 323.5, 453.0, 329.0, 326.5, 323.5, 328.0, 322.0, 321.0, 321.0, 318.0, 323.0, 
18:12:48.992216, 301.0, 320.5, 202.5, 320.0, 320.0, 325.5, 327.0, 320.0, 321.5, 410.0, 323.0, 324.0, 
18:12:49.000213, 341.0, 341.0, 635.0, 347.0, 334.0, 330.0, 329.0, 332.0, 325.0, 8.0, 345.0, 318.0, 
18:12:49.008173, 283.0, 308.0, 157.5, 307.5, 316.0, 318.0, 325.0, 307.0, 315.5, 547.5, 299.0, 328.5, 
18:12:49.016215, 349.0, 337.0, 481.5, 343.5, 334.5, 333.0, 331.0, 333.5, 323.0, 256.5, 340.0, 316.0, 
18:12:49.024163, 304.5, 307.5, 186.0, 305.0, 312.0, 319.0, 327.5, 307.0, 318.5, 430.0, 309.5, 325.5, 
18:12:49.032193, 343.5, 333.0, 447.0, 343.5, 335.5, 332.5, 331.5, 335.0, 322.0, 320.0, 332.5, 316.5, 
18:12:49.040173, 298.5, 308.0, 219.0, 308.5, 315.0, 322.5, 327.5, 309.0, 319.5, 381.0, 307.0, 327.0, 
18:12:49.048175, 352.5, 336.0, 413.0, 340.0, 331.0, 332.5, 328.5, 332.0, 320.5, 319.5, 331.5, 320.0, 
18:12:49.056144, 307.5, 307.5, 268.0, 308.5, 317.0, 316.5, 327.5, 309.5, 316.5, 319.0, 303.5, 317.0, 
18:12:49.064135, 340.5, 334.0, 374.0, 337.5, 327.5, 329.0, 330.5, 328.0, 319.5, 320.5, 329.5, 315.5, 
18:12:49.072132, 309.5, 311.0, 306.0, 312.0, 322.5, 319.0, 325.5, 314.0, 322.0, 320.0, 312.5, 324.5, 
18:12:49.080125, 327.5, 329.0, 323.5, 335.5, 331.0, 328.0, 328.0, 329.5, 322.5, 319.5, 334.0, 313.5, 
18:12:49.088119, 333.0, 312.0, 319.0, 314.5, 317.0, 322.5, 328.0, 311.0, 315.5, 319.5, 304.5, 326.0, 
18:12:49.096114, 313.0, 328.0, 322.0, 331.0, 328.0, 326.0, 329.5, 327.0, 321.5, 319.0, 332.0, 318.5, 
18:12:49.104109, 330.5, 317.5, 320.0, 319.0, 321.5, 323.5, 327.0, 315.5, 320.5, 320.5, 311.0, 324.0, 
18:12:49.112103, 293.0, 322.5, 276.0, 325.0, 324.0, 327.5, 328.5, 324.5, 323.5, 322.5, 328.0, 317.5, 
18:12:49.120098, 339.0, 321.0, 413.0, 323.5, 326.5, 324.5, 328.5, 318.0, 319.0, 320.5, 317.0, 323.0, 
18:12:49.128093, 328.0, 319.0, 197.0, 319.5, 321.5, 327.5, 328.5, 323.5, 322.5, 370.0, 325.0, 322.0, 
18:12:49.136087, 323.5, 323.5, 452.0, 328.0, 325.5, 329.5, 330.0, 322.0, 319.5, 306.0, 316.5, 323.5, 
18:12:49.144082, 290.5, 318.0, 187.0, 318.0, 319.0, 320.5, 327.0, 316.5, 321.0, 499.5, 324.5, 323.0, 
18:12:49.152077, 342.0, 328.5, 503.5, 335.5, 330.5, 330.0, 331.0, 327.5, 321.5, 146.0, 326.5, 323.5, 
18:12:49.160072, 308.0, 313.0, 155.0, 315.0, 319.0, 323.0, 325.5, 313.5, 319.5, 619.0, 316.5, 326.5, 
18:12:49.168066, 335.0, 326.5, 521.5, 336.5, 330.0, 329.0, 331.0, 326.0, 319.5, 83.5, 322.0, 318.0, 
18:12:49.176090, 324.5, 315.5, 118.0, 313.5, 318.0, 323.5, 329.0, 315.0, 322.0, 634.0, 319.5, 322.0, 
18:12:49.184058, 322.0, 327.5, 546.5, 331.5, 330.0, 329.5, 332.5, 330.0, 321.5, 21.5, 321.0, 319.5, 
18:12:49.192050, 317.0, 311.5, 57.5, 311.0, 317.0, 324.0, 329.5, 314.5, 320.5, 633.5, 312.0, 325.5, 
18:12:49.200045, 328.0, 330.5, 599.0, 339.5, 332.5, 328.0, 329.5, 327.0, 317.5, 6.5, 328.5, 317.5, 
18:12:49.208039, 295.5, 311.0, 23.0, 308.0, 314.5, 321.5, 327.0, 313.0, 322.0, 633.5, 315.0, 323.5, 
18:12:49.216033, 336.5, 332.5, 633.0, 338.0, 334.0, 329.0, 327.5, 332.0, 320.5, 7.5, 327.5, 318.0, 
18:12:49.224028, 281.5, 307.5, 6.5, 306.5, 312.5, 324.5, 327.5, 306.5, 318.5, 633.0, 307.5, 325.5, 
18:12:49.232026, 340.0, 337.0, 635.0, 345.5, 338.0, 328.5, 330.0, 334.5, 321.0, 6.0, 327.0, 316.0, 
18:12:49.240020, 305.5, 302.0, 5.5, 300.0, 314.0, 320.5, 326.5, 310.0, 318.0, 634.5, 310.0, 325.5, 
18:12:49.248042, 335.5, 338.0, 635.0, 349.0, 337.5, 333.5, 333.0, 334.5, 322.0, 6.5, 335.0, 311.0, 
18:12:49.256008, 293.5, 307.0, 79.5, 299.5, 309.0, 318.0, 327.0, 305.0, 319.5, 634.5, 305.5, 329.5, 
18:12:49.264002, 341.0, 332.0, 551.5, 342.0, 336.5, 333.0, 332.5, 340.0, 324.0, 22.0, 336.0, 308.5, 
18:12:49.272025, 290.0, 308.0, 129.0, 308.5, 316.0, 321.0, 327.0, 305.0, 318.5, 632.5, 304.0, 327.5, 
18:12:49.280019, 337.5, 335.0, 513.0, 343.5, 335.5, 334.5, 333.0, 336.5, 324.0, 155.0, 341.5, 314.5, 
18:12:49.287987, 281.0, 307.0, 142.0, 306.0, 314.0, 320.0, 324.5, 306.5, 318.5, 486.0, 304.0, 324.0, 
18:12:49.295981, 344.5, 333.5, 493.0, 340.5, 336.0, 330.5, 330.0, 335.0, 320.0, 282.5, 335.5, 313.0, 
18:12:49.303979, 307.0, 310.0, 155.0, 303.5, 313.5, 321.0, 328.0, 307.0, 319.0, 405.5, 311.0, 328.0, 
18:12:49.311970, 355.0, 331.5, 460.0, 338.5, 331.5, 333.0, 328.0, 334.0, 324.0, 321.5, 338.0, 316.0, 
18:12:49.319964, 337.0, 318.0, 385.0, 318.0, 320.0, 320.0, 323.0, 314.0, 318.0, 80.0, 310.0, 322.0, 
18:12:49.327962, 316.5, 314.5, 128.5, 316.0, 319.5, 326.5, 327.0, 313.0, 318.5, 635.0, 314.0, 330.0, 
18:12:49.335956, 337.5, 331.0, 538.0, 338.0, 331.5, 329.0, 329.5, 327.5, 320.0, 6.0, 327.5, 316.0, 
18:12:49.343949, 291.0, 310.5, 78.0, 307.5, 314.0, 321.0, 325.0, 313.0, 321.5, 635.0, 314.5, 323.0, 
18:12:49.351974, 345.5, 331.5, 586.0, 340.0, 332.0, 327.0, 329.5, 328.5, 318.5, 5.5, 329.0, 321.5, 
18:12:49.359938, 328.0, 308.0, 56.5, 306.0, 313.0, 320.0, 328.5, 310.0, 319.0, 634.0, 306.0, 324.5, 
18:12:49.367964, 328.0, 333.5, 603.5, 338.0, 332.0, 327.0, 329.5, 337.0, 324.0, 8.0, 331.0, 316.0, 
18:12:49.375957, 289.5, 308.5, 19.5, 303.0, 314.5, 325.0, 329.5, 308.0, 321.0, 632.5, 309.0, 329.0, 
18:12:49.383957, 339.0, 335.5, 606.5, 345.5, 336.0, 329.5, 329.0, 334.5, 323.5, 9.0, 334.0, 317.0, 
18:12:49.391948, 284.5, 304.0, 38.5, 298.5, 309.0, 315.5, 325.0, 305.5, 317.5, 633.5, 307.0, 326.5, 
18:12:49.399912, 347.5, 334.0, 571.0, 344.0, 335.0, 331.5, 333.5, 340.5, 324.5, 7.0, 336.5, 311.5, 
18:12:49.407937, 305.0, 311.0, 111.5, 306.0, 311.0, 319.5, 326.0, 303.5, 317.0, 633.0, 303.5, 322.0, 
18:12:49.415903, 340.5, 334.5, 528.0, 342.0, 340.0, 334.0, 333.5, 338.5, 323.0, 76.0, 332.5, 315.5, 
18:12:49.423925, 327.5, 306.5, 121.0, 305.0, 314.0, 319.5, 325.0, 306.5, 317.0, 590.0, 304.0, 326.0, 
18:12:49.431921, 325.0, 335.0, 513.5, 343.0, 333.0, 332.0, 331.0, 334.0, 322.5, 211.0, 337.5, 317.0, 
18:12:49.439885, 293.0, 308.5, 142.5, 305.0, 313.0, 318.0, 327.0, 307.5, 319.0, 442.0, 308.5, 328.0, 
18:12:49.447885, 340.5, 331.5, 481.5, 343.5, 335.5, 333.5, 331.5, 335.0, 321.0, 319.0, 335.5, 319.5, 
18:12:49.455909, 303.0, 310.0, 179.5, 308.5, 316.0, 320.0, 326.0, 308.0, 319.0, 388.0, 308.0, 327.0, 
18:12:49.463869, 355.0, 331.0, 450.0, 335.0, 330.0, 329.5, 329.0, 331.5, 322.0, 319.5, 336.5, 316.0, 
18:12:49.471867, 304.0, 310.0, 188.5, 309.5, 320.0, 324.5, 329.5, 312.0, 320.5, 334.0, 303.5, 326.0, 
18:12:49.479893, 349.5, 329.5, 434.5, 336.0, 332.0, 331.5, 331.0, 330.0, 322.5, 320.0, 338.5, 314.0, 
18:12:49.487887, 311.5, 310.0, 219.0, 310.0, 314.5, 320.5, 328.5, 309.5, 317.5, 319.5, 308.0, 325.0, 
18:12:49.495848, 328.5, 330.5, 401.0, 336.5, 331.0, 331.0, 330.0, 330.5, 324.0, 320.5, 330.0, 318.5, 
18:12:49.503847, 335.5, 315.0, 254.0, 315.0, 320.0, 313.0, 324.5, 311.5, 318.5, 318.5, 308.5, 326.0, 
18:12:49.511863, 324.5, 329.0, 361.5, 332.5, 326.5, 337.5, 332.5, 327.5, 322.5, 320.0, 330.0, 316.0, 
18:12:49.519867, 321.5, 313.5, 296.0, 314.5, 323.5, 324.0, 329.5, 314.0, 317.5, 320.5, 308.5, 324.0, 
18:12:49.527837, 303.0, 325.0, 322.5, 325.5, 323.5, 324.0, 329.0, 325.0, 323.5, 321.0, 330.0, 316.5, 
18:12:49.535847, 328.0, 317.5, 347.5, 319.5, 321.0, 322.5, 330.5, 319.0, 320.5, 321.0, 312.5, 323.0, 
18:12:49.543817, 295.5, 322.5, 286.5, 324.0, 322.5, 323.5, 327.0, 322.5, 320.5, 320.5, 325.5, 318.5, 
18:12:49.551843, 343.0, 335.0, 585.0, 347.0, 338.0, 333.0, 332.0, 335.0, 320.0, 5.0, 331.0, 318.0, 
18:12:49.559814, 306.0, 310.0, 152.5, 305.0, 312.5, 317.0, 323.5, 303.0, 316.0, 632.5, 304.5, 330.0, 
18:12:49.567800, 341.5, 334.0, 512.5, 342.5, 336.5, 333.0, 332.0, 338.0, 323.0, 45.5, 339.5, 314.0, 
18:12:49.575838, 279.5, 308.0, 133.0, 306.0, 313.0, 319.5, 324.0, 304.5, 316.5, 615.0, 301.5, 330.5, 
18:12:49.583814, 347.0, 335.5, 513.5, 344.0, 334.5, 332.5, 333.0, 337.0, 323.0, 174.0, 336.0, 319.0, 
18:12:49.592658, 330.0, 312.0, 269.0, 312.0, 319.0, 323.0, 333.0, 316.0, 322.0, 305.0, 308.0, 327.0, 
18:12:49.595820, 330.0, 305.0, 34.0, 297.0, 310.0, 319.0, 323.0, 302.0, 315.0, 632.0, 306.0, 331.0, 
18:12:49.600009, 326.0, 327.0, 366.0, 331.0, 325.0, 329.0, 326.0, 327.0, 323.0, 585.0, 330.0, 319.0, 
18:12:49.604164, 322.0, 339.0, 593.0, 354.0, 344.0, 336.0, 334.0, 344.0, 325.0, 6.0, 337.0, 313.0, 
18:12:49.608276, 322.0, 312.0, 317.0, 315.0, 318.0, 320.0, 325.0, 313.0, 321.0, 180.0, 315.0, 327.0, 
18:12:49.612354, 288.0, 305.0, 86.0, 302.0, 306.0, 316.0, 322.0, 296.0, 315.0, 633.0, 299.0, 325.0, 
18:12:49.615876, 348.5, 331.0, 429.5, 338.0, 334.5, 330.5, 332.0, 335.0, 325.0, 320.5, 337.5, 314.5, 
18:12:49.623910, 301.0, 310.0, 201.5, 308.0, 314.5, 325.0, 326.0, 309.5, 320.0, 353.5, 308.5, 323.0, 
18:12:49.631907, 350.5, 332.0, 436.0, 337.5, 333.0, 327.5, 327.0, 331.5, 324.5, 321.0, 334.0, 312.5, 
18:12:49.639900, 309.5, 311.0, 226.5, 309.0, 315.0, 316.5, 326.0, 309.5, 317.5, 320.0, 308.5, 326.0, 
18:12:49.647866, 323.5, 330.5, 408.0, 334.0, 330.5, 331.5, 330.0, 330.0, 322.5, 319.0, 333.5, 317.0, 
18:12:49.655892, 340.0, 313.0, 252.5, 312.0, 317.5, 318.5, 326.5, 310.0, 317.5, 319.5, 309.5, 327.5, 
18:12:49.663890, 326.0, 327.5, 392.5, 330.0, 330.5, 329.5, 328.5, 330.0, 321.5, 320.5, 334.0, 312.5, 
18:12:49.671878, 331.5, 316.0, 280.5, 315.5, 319.0, 320.0, 326.5, 311.0, 316.0, 318.5, 311.5, 327.5, 
18:12:49.679873, 296.5, 325.5, 330.5, 326.0, 327.0, 330.0, 329.5, 327.5, 322.5, 320.5, 330.0, 317.0, 
18:12:49.687835, 332.5, 318.5, 299.5, 319.0, 321.5, 322.0, 328.0, 314.0, 316.5, 319.0, 309.0, 324.5, 
18:12:49.695832, 302.5, 324.5, 323.5, 325.5, 323.5, 326.5, 329.0, 323.5, 322.0, 321.5, 330.0, 313.0, 
18:12:49.703857, 335.0, 322.0, 344.0, 325.0, 323.5, 320.5, 327.5, 316.0, 317.0, 319.5, 312.5, 322.5, 
18:12:49.711851, 319.5, 318.0, 280.0, 324.5, 327.0, 321.5, 329.0, 326.0, 326.5, 321.0, 327.5, 321.5, 
18:12:49.719850, 333.0, 323.5, 384.0, 329.0, 327.5, 326.5, 327.5, 320.5, 317.0, 319.0, 314.0, 321.0, 
18:12:49.727843, 292.0, 318.0, 254.0, 321.5, 320.5, 328.0, 331.0, 321.0, 321.5, 431.0, 321.0, 322.5, 
18:12:49.735805, 337.0, 325.5, 406.5, 329.0, 328.0, 325.5, 329.0, 323.5, 319.0, 209.5, 316.5, 312.0, 
18:12:49.743799, 291.5, 318.0, 233.0, 315.0, 321.0, 326.5, 329.5, 317.0, 319.5, 573.5, 320.0, 320.5, 
18:12:49.751802, 342.0, 326.5, 412.5, 333.5, 331.0, 328.5, 331.0, 325.5, 321.0, 110.5, 322.5, 320.5, 
18:12:49.759824, 324.0, 317.0, 236.5, 316.0, 318.0, 322.5, 326.0, 313.0, 319.5, 623.5, 318.5, 321.5, 
18:12:49.767785, 340.5, 324.0, 400.5, 332.0, 330.0, 328.0, 330.0, 328.5, 321.0, 60.0, 324.0, 321.5, 
18:12:49.775814, 317.0, 315.5, 227.0, 315.0, 317.0, 324.0, 328.5, 313.0, 320.5, 635.0, 315.5, 322.5, 
18:12:49.783771, 342.5, 326.0, 419.5, 329.0, 330.0, 327.0, 330.5, 327.0, 318.0, 15.0, 323.0, 316.5, 
18:12:49.791766, 301.0, 314.0, 210.5, 313.5, 318.5, 325.0, 327.5, 314.0, 319.0, 633.5, 313.0, 322.5, 
18:12:49.799761, 348.5, 329.0, 430.0, 334.5, 332.0, 327.0, 328.5, 327.0, 319.0, 6.0, 324.5, 317.5, 
18:12:49.807756, 311.0, 314.0, 202.5, 311.0, 316.0, 318.5, 326.5, 313.0, 322.0, 633.5, 321.5, 323.5, 
18:12:49.815750, 340.0, 331.5, 453.0, 340.0, 333.5, 331.5, 333.0, 330.5, 320.0, 7.0, 319.5, 318.5, 
18:12:49.823745, 281.0, 311.5, 179.5, 310.5, 314.0, 315.5, 324.5, 307.0, 318.0, 633.5, 315.5, 326.5, 
18:12:49.831740, 350.0, 333.0, 486.0, 339.0, 333.0, 327.5, 328.0, 332.5, 322.5, 6.5, 330.0, 311.0, 
18:12:49.839734, 335.0, 304.0, 106.0, 301.0, 308.0, 320.0, 326.0, 298.0, 314.0, 633.0, 297.0, 334.0, 
18:12:49.847728, 303.0, 327.5, 343.0, 328.0, 327.5, 330.0, 330.5, 331.0, 324.5, 320.5, 329.0, 317.0, 
18:12:49.855724, 335.5, 316.0, 310.5, 315.5, 318.5, 325.5, 322.5, 311.5, 316.5, 319.0, 313.5, 327.0, 
18:12:49.863717, 301.5, 325.5, 322.0, 329.0, 331.5, 329.0, 331.5, 329.0, 322.5, 319.5, 325.0, 316.0, 
18:12:49.871743, 336.0, 319.5, 355.0, 322.0, 322.0, 320.0, 325.0, 314.5, 318.5, 321.0, 322.5, 327.5, 
18:12:49.879709, 315.5, 321.5, 288.5, 326.0, 326.0, 328.0, 329.0, 322.5, 321.5, 327.5, 325.5, 318.5, 
18:12:49.887733, 331.5, 321.0, 367.0, 328.5, 327.0, 324.0, 328.5, 320.5, 317.0, 319.0, 311.0, 321.5, 
18:12:49.895696, 299.5, 320.0, 271.0, 320.5, 322.5, 327.5, 330.5, 322.5, 321.0, 423.0, 326.0, 321.0, 
18:12:49.903690, 335.5, 324.0, 394.0, 326.5, 327.0, 326.5, 328.0, 326.5, 323.0, 226.5, 321.5, 322.0, 
18:12:49.911718, 302.5, 317.0, 253.0, 315.5, 321.0, 325.5, 327.5, 316.5, 318.5, 556.0, 317.5, 319.0, 
18:12:49.919713, 335.0, 326.0, 382.5, 331.0, 330.0, 326.5, 330.0, 324.0, 318.5, 119.5, 317.5, 317.0, 
18:12:49.927703, 323.0, 317.0, 249.0, 314.5, 317.5, 324.0, 326.5, 317.0, 323.5, 628.5, 322.5, 322.5, 
18:12:49.935698, 331.5, 324.0, 392.5, 335.0, 332.0, 321.0, 330.0, 327.5, 321.0, 76.5, 322.5, 318.5, 
18:12:49.943665, 322.5, 319.0, 252.5, 316.5, 319.0, 328.5, 326.0, 313.5, 320.0, 634.5, 319.5, 321.0, 
18:12:49.951660, 332.5, 325.0, 398.0, 330.5, 330.5, 327.0, 331.0, 328.0, 319.0, 17.5, 326.5, 320.0, 
18:12:49.959654, 327.0, 315.5, 216.0, 314.0, 318.0, 325.0, 326.0, 312.5, 321.5, 634.0, 313.5, 322.0, 
18:12:49.967648, 324.0, 328.0, 424.5, 335.0, 332.5, 328.0, 330.5, 326.5, 321.5, 8.0, 326.5, 318.5, 
18:12:49.975643, 292.5, 316.0, 204.0, 310.5, 316.0, 323.0, 326.5, 312.0, 320.5, 633.0, 318.0, 321.5, 
18:12:49.983638, 343.0, 329.5, 449.5, 336.5, 331.5, 329.5, 332.5, 331.0, 318.5, 6.5, 322.5, 316.5, 
18:12:49.991636, 317.5, 313.5, 191.0, 309.0, 314.0, 321.0, 324.5, 310.0, 323.0, 635.5, 319.0, 326.0, 
18:12:49.999626, 339.0, 330.0, 448.0, 336.0, 331.5, 329.5, 330.0, 331.5, 319.0, 9.0, 325.0, 316.5, 
18:12:50.007626, 269.0, 307.5, 178.5, 305.5, 313.5, 321.0, 325.0, 308.0, 322.0, 634.0, 315.0, 324.5, 
18:12:50.015617, 345.5, 334.0, 471.5, 342.0, 338.5, 333.0, 334.0, 336.5, 323.5, 6.5, 326.5, 315.0, 
18:12:50.023611, 283.0, 305.5, 162.0, 299.5, 309.0, 321.0, 327.5, 306.5, 319.0, 633.5, 310.0, 325.5, 
18:12:50.031610, 349.0, 336.0, 478.0, 344.5, 337.5, 333.5, 331.0, 334.0, 320.5, 7.5, 329.0, 316.5, 
18:12:50.039601, 306.0, 309.0, 183.0, 303.5, 312.0, 315.5, 324.0, 305.0, 318.5, 633.5, 307.5, 327.5, 
18:12:50.047596, 340.0, 333.0, 467.5, 343.5, 337.5, 334.5, 335.0, 339.5, 324.0, 6.0, 334.5, 315.0, 
18:12:50.055590, 273.0, 310.0, 206.0, 305.5, 314.5, 319.0, 324.5, 304.5, 317.0, 633.0, 302.5, 326.0, 
18:12:50.063585, 358.0, 332.0, 443.0, 337.5, 334.0, 331.0, 334.0, 338.0, 324.5, 67.5, 336.0, 314.0, 
18:12:50.071579, 336.0, 310.0, 247.0, 313.0, 317.0, 323.0, 328.0, 309.0, 317.0, 543.0, 300.0, 330.0, 
18:12:50.079575, 294.0, 317.5, 264.5, 318.5, 322.5, 330.0, 332.0, 318.5, 321.0, 509.5, 322.5, 321.5, 
18:12:50.087569, 345.0, 326.0, 392.5, 331.0, 329.5, 326.0, 327.5, 325.5, 320.0, 133.5, 322.0, 322.0, 
18:12:50.095607, 308.5, 316.0, 238.5, 315.5, 317.5, 323.5, 326.0, 314.0, 320.0, 608.0, 316.0, 321.0, 
18:12:50.103558, 334.0, 326.0, 402.0, 331.5, 334.0, 333.5, 331.5, 330.5, 320.0, 85.0, 323.5, 318.0, 
18:12:50.111582, 325.0, 320.0, 257.5, 316.5, 318.5, 320.0, 326.5, 315.5, 322.5, 633.5, 322.0, 322.0, 
18:12:50.119547, 336.5, 322.5, 374.5, 329.0, 329.5, 332.0, 332.5, 327.0, 319.0, 43.5, 322.0, 319.5, 
18:12:50.127542, 328.5, 316.0, 242.5, 316.0, 318.0, 321.0, 324.5, 313.0, 321.0, 634.0, 315.5, 323.0, 
18:12:50.135536, 323.5, 327.0, 410.0, 332.5, 330.0, 326.0, 329.0, 329.5, 321.0, 7.5, 325.5, 318.5, 
18:12:50.143530, 305.0, 313.0, 224.0, 313.5, 316.5, 323.5, 328.0, 311.0, 320.0, 633.0, 315.0, 325.0, 
18:12:50.151526, 339.5, 328.0, 423.5, 337.0, 333.0, 329.0, 330.0, 329.5, 319.0, 6.0, 324.0, 318.5, 
18:12:50.159521, 286.0, 312.5, 220.5, 309.0, 317.5, 323.0, 327.0, 310.0, 319.0, 633.5, 313.0, 322.0, 
18:12:50.167515, 345.5, 329.5, 442.5, 339.5, 335.0, 330.0, 332.0, 330.0, 319.5, 5.5, 328.5, 316.5, 
18:12:50.175510, 328.0, 308.5, 195.0, 307.0, 314.5, 320.5, 325.5, 309.5, 321.0, 634.5, 309.5, 324.5, 
18:12:50.183505, 323.0, 334.5, 462.5, 342.5, 335.5, 330.5, 332.0, 332.5, 322.5, 7.0, 335.5, 317.0, 
18:12:50.191499, 322.5, 307.0, 170.0, 304.5, 311.5, 317.5, 324.5, 305.0, 317.0, 632.5, 302.0, 325.5, 
18:12:50.199493, 321.0, 337.0, 469.5, 344.5, 338.5, 332.0, 331.5, 336.5, 324.0, 7.0, 332.5, 314.5, 
18:12:50.207489, 321.5, 308.0, 192.5, 303.0, 311.0, 317.5, 326.0, 306.5, 318.5, 634.5, 309.0, 327.0, 
18:12:50.215483, 322.0, 335.5, 459.5, 345.5, 337.5, 335.0, 332.5, 337.0, 322.0, 8.0, 337.5, 314.5, 
18:12:50.223478, 271.0, 310.0, 212.0, 307.0, 314.0, 319.5, 325.0, 305.0, 320.5, 635.0, 309.5, 328.5, 
18:12:50.231473, 347.0, 331.5, 415.5, 338.0, 334.0, 332.5, 332.5, 337.0, 322.0, 35.0, 332.5, 312.0, 
18:12:50.239472, 331.0, 312.0, 234.0, 318.0, 323.0, 324.0, 330.0, 308.0, 314.0, 580.0, 287.0, 327.0, 
18:12:50.247466, 306.0, 325.3333333333333, 352.3333333333333, 329.6666666666667, 326.3333333333333, 329.0, 330.0, 325.0, 323.6666666666667, 324.6666666666667, 333.6666666666667, 318.6666666666667, 
18:12:50.255457, 287.5, 308.0, 193.5, 305.0, 312.5, 318.5, 324.5, 308.0, 317.5, 459.0, 303.0, 329.0, 
18:12:50.263452, 353.0, 333.5, 432.5, 339.5, 333.5, 328.0, 328.5, 334.0, 319.5, 303.5, 335.5, 315.5, 
18:12:50.271446, 314.5, 310.0, 205.0, 309.0, 315.0, 321.5, 331.0, 310.5, 322.5, 413.0, 308.5, 327.0, 
18:12:50.279441, 341.5, 331.5, 413.0, 340.0, 333.0, 332.0, 329.5, 333.5, 323.5, 322.5, 335.0, 315.0, 
18:12:50.287436, 312.0, 309.0, 229.0, 309.0, 313.5, 316.0, 324.5, 305.5, 317.0, 366.0, 309.5, 327.0, 
18:12:50.295430, 351.0, 328.0, 338.0, 331.0, 328.0, 329.0, 330.0, 329.0, 324.0, 633.0, 329.0, 320.0, 
18:12:50.303425, 335.0, 327.5, 406.0, 331.0, 330.0, 325.0, 329.0, 329.0, 320.5, 7.0, 322.5, 317.0, 
18:12:50.311418, 308.0, 311.5, 214.5, 310.0, 314.0, 323.0, 328.5, 315.0, 323.5, 635.5, 318.0, 324.0, 
18:12:50.319442, 345.5, 332.5, 434.0, 337.5, 332.5, 330.0, 331.5, 327.5, 318.5, 6.0, 324.0, 316.5, 
18:12:50.327436, 325.5, 307.0, 185.0, 310.0, 316.5, 323.5, 327.0, 313.5, 320.0, 633.5, 315.5, 322.5, 
18:12:50.335403, 338.5, 335.0, 467.0, 340.5, 335.0, 330.0, 331.5, 331.5, 321.0, 7.0, 327.5, 317.5, 
18:12:50.343398, 326.5, 305.0, 156.5, 303.5, 316.0, 319.5, 324.0, 309.5, 319.0, 634.5, 310.5, 325.0, 
18:12:50.351393, 325.0, 340.0, 492.0, 348.0, 335.5, 336.5, 333.5, 332.0, 321.0, 5.5, 333.0, 317.0, 
18:12:50.359387, 282.5, 303.5, 107.0, 298.5, 313.0, 319.0, 327.0, 308.5, 317.5, 633.0, 300.5, 327.5, 
18:12:50.367382, 348.0, 342.5, 531.0, 350.5, 338.0, 330.5, 332.0, 335.0, 320.0, 6.0, 332.5, 315.5, 
18:12:50.375377, 283.5, 305.5, 152.0, 300.0, 312.0, 321.5, 326.5, 305.0, 320.0, 633.0, 313.0, 326.0, 
18:12:50.383372, 356.0, 336.5, 494.5, 347.5, 335.0, 330.0, 333.0, 337.5, 322.5, 9.0, 333.0, 312.5, 
18:12:50.391367, 314.0, 307.5, 164.0, 301.5, 315.0, 325.0, 330.5, 305.0, 318.0, 634.0, 302.0, 327.5, 
18:12:50.399360, 334.5, 336.0, 466.0, 343.0, 331.5, 332.0, 334.5, 335.5, 323.5, 48.0, 338.0, 312.0, 
18:12:50.407355, 326.5, 304.0, 177.0, 302.5, 318.0, 325.0, 329.0, 312.0, 320.5, 619.0, 305.5, 329.5, 
18:12:50.415350, 322.5, 337.0, 470.5, 344.0, 334.5, 333.0, 330.5, 332.0, 322.0, 169.0, 338.5, 312.0, 
18:12:50.423345, 321.0, 304.0, 168.0, 300.0, 312.0, 314.5, 327.5, 307.0, 316.5, 477.5, 304.5, 326.5, 
18:12:50.431341, 320.5, 337.5, 464.5, 347.5, 335.5, 337.0, 331.5, 336.0, 323.5, 288.5, 332.5, 313.5, 
18:12:50.439334, 305.5, 306.5, 191.0, 300.5, 313.5, 317.5, 325.5, 308.0, 318.5, 409.0, 309.0, 327.0, 
18:12:50.447329, 347.0, 333.5, 434.5, 341.5, 332.0, 332.0, 332.5, 334.5, 323.0, 320.5, 333.5, 313.5, 
18:12:50.455323, 307.0, 307.0, 212.0, 305.0, 314.0, 317.5, 327.0, 308.0, 319.0, 368.0, 311.0, 325.5, 
18:12:50.463318, 347.5, 335.0, 426.5, 341.0, 335.5, 331.5, 331.0, 334.5, 323.0, 320.0, 332.5, 315.0, 
18:12:50.471374, 310.5, 306.5, 205.5, 306.0, 317.0, 320.5, 327.5, 312.5, 319.0, 320.5, 309.0, 327.0, 
18:12:50.479317, 346.5, 333.5, 407.5, 342.5, 330.5, 331.5, 330.0, 331.0, 323.0, 321.5, 337.5, 316.5, 
18:12:50.487334, 331.5, 312.0, 237.0, 306.5, 317.0, 320.0, 325.0, 313.0, 322.0, 321.5, 312.0, 328.0, 
18:12:50.495328, 324.5, 329.5, 382.0, 336.0, 327.5, 331.5, 330.0, 329.5, 323.5, 321.5, 329.5, 316.0, 
18:12:50.503291, 317.0, 311.5, 270.0, 309.0, 324.0, 324.0, 330.0, 314.0, 318.5, 320.0, 307.5, 324.5, 
18:12:50.511294, 304.0, 327.5, 363.0, 333.5, 326.0, 328.5, 331.0, 328.5, 321.5, 320.5, 334.5, 317.5, 
18:12:50.519281, 333.5, 316.0, 285.0, 318.0, 320.5, 321.5, 327.0, 311.5, 315.0, 321.0, 309.5, 327.5, 
18:12:50.527275, 294.0, 323.5, 328.0, 328.5, 328.5, 329.5, 330.0, 328.0, 324.5, 320.5, 329.0, 315.0, 
18:12:50.535270, 333.5, 321.5, 354.5, 323.0, 322.5, 323.5, 331.5, 315.5, 319.0, 321.0, 311.5, 323.0, 
18:12:50.543264, 232.0, 304.0, 70.0, 298.0, 321.0, 319.0, 326.0, 313.0, 319.0, 633.0, 313.0, 322.0, 
18:12:50.551258, 356.5, 336.0, 534.0, 356.5, 334.0, 336.5, 333.5, 335.5, 325.5, 9.0, 338.0, 314.0, 
18:12:50.559254, 311.5, 306.5, 120.0, 300.0, 315.0, 319.5, 325.0, 306.5, 320.5, 633.5, 305.5, 327.5, 
18:12:50.567249, 344.0, 336.5, 519.5, 346.5, 333.5, 331.5, 330.5, 335.5, 321.5, 70.5, 337.5, 312.5, 
18:12:50.575243, 276.0, 306.5, 124.5, 300.0, 315.5, 321.0, 325.5, 305.5, 317.5, 613.5, 308.5, 330.5, 
18:12:50.583239, 352.5, 339.5, 512.5, 351.5, 332.5, 330.5, 329.0, 330.0, 321.5, 195.0, 334.0, 314.0, 
18:12:50.591233, 301.5, 303.5, 151.0, 298.0, 316.5, 321.5, 329.5, 313.5, 322.0, 462.5, 307.0, 328.5, 
18:12:50.599227, 340.0, 334.5, 481.5, 350.0, 333.0, 332.5, 333.5, 335.0, 324.5, 312.5, 334.0, 313.0, 
18:12:50.607222, 306.5, 306.5, 174.5, 300.5, 315.0, 318.5, 326.0, 308.0, 318.5, 407.0, 311.5, 329.5, 
18:12:50.615220, 351.5, 332.5, 445.0, 344.0, 333.5, 332.5, 332.0, 333.5, 321.0, 319.5, 332.0, 314.0, 
18:12:50.623213, 310.5, 307.5, 222.5, 305.5, 319.5, 322.5, 328.0, 311.5, 320.0, 330.0, 309.0, 327.5, 
18:12:50.631206, 342.5, 335.0, 413.5, 345.0, 330.0, 330.5, 329.5, 328.0, 321.5, 320.5, 335.0, 314.0, 
18:12:50.639217, 334.5, 309.0, 266.0, 303.5, 318.5, 319.0, 326.0, 313.5, 320.5, 320.5, 311.5, 325.5, 
18:12:50.647195, 326.0, 331.5, 355.5, 342.0, 331.5, 332.0, 330.0, 331.0, 324.0, 319.5, 333.0, 316.0, 
18:12:50.655191, 314.0, 310.5, 319.0, 307.0, 318.0, 320.5, 326.0, 311.5, 319.0, 320.5, 312.0, 327.5, 
18:12:50.663183, 304.5, 328.5, 320.5, 334.5, 326.5, 328.0, 327.5, 325.5, 319.5, 321.5, 327.5, 317.5, 
18:12:50.671180, 329.0, 316.5, 320.5, 317.0, 321.5, 324.0, 330.0, 316.5, 320.5, 320.0, 312.0, 325.0, 
18:12:50.679174, 307.5, 324.5, 292.5, 326.5, 326.5, 327.0, 326.5, 329.5, 325.0, 322.0, 331.0, 318.5, 
18:12:50.687167, 333.0, 321.5, 394.0, 321.5, 323.0, 325.5, 329.5, 317.5, 319.0, 320.0, 314.0, 322.5, 
18:12:50.695168, 318.5, 320.0, 213.0, 323.0, 322.0, 327.0, 327.0, 320.0, 319.0, 328.0, 326.0, 320.5, 
18:12:50.703159, 330.5, 324.5, 449.0, 329.5, 326.0, 333.5, 330.0, 323.0, 320.0, 319.0, 316.0, 320.5, 
18:12:50.711153, 288.0, 319.5, 190.5, 317.5, 324.0, 316.0, 325.0, 318.5, 322.0, 469.0, 325.0, 322.5, 
18:12:50.719151, 336.0, 328.0, 463.5, 340.0, 331.0, 328.0, 331.0, 323.5, 318.5, 158.5, 320.0, 320.5, 
18:12:50.727147, 311.5, 311.0, 163.0, 310.0, 317.5, 325.5, 330.0, 316.5, 318.0, 601.5, 318.5, 314.5, 
18:12:50.735137, 329.5, 328.5, 507.0, 337.5, 330.0, 331.0, 334.0, 331.5, 324.0, 93.5, 327.0, 320.5, 
18:12:50.743136, 330.0, 316.5, 141.0, 310.0, 319.5, 323.5, 328.0, 316.0, 321.5, 633.5, 313.0, 323.5, 
18:12:50.751131, 338.5, 326.0, 529.0, 333.5, 325.5, 325.0, 328.0, 325.0, 321.0, 33.5, 328.0, 320.5, 
18:12:50.759121, 318.5, 311.0, 115.5, 312.0, 317.5, 322.5, 325.5, 313.5, 319.5, 634.0, 313.0, 323.0, 
18:12:50.767116, 339.5, 332.0, 567.5, 338.0, 333.5, 329.5, 331.5, 328.0, 321.5, 6.5, 327.0, 316.5, 
18:12:50.775110, 308.5, 308.5, 71.0, 303.0, 315.0, 322.0, 327.0, 313.5, 321.0, 633.5, 318.0, 324.5, 
18:12:50.783104, 335.5, 331.5, 586.0, 338.0, 332.5, 331.0, 335.0, 330.5, 320.0, 6.5, 321.5, 315.5, 
18:12:50.791099, 326.5, 306.5, 27.5, 299.5, 314.0, 310.0, 325.0, 308.5, 319.5, 632.5, 313.0, 325.5, 
18:12:50.799094, 323.5, 338.5, 632.5, 346.5, 334.0, 337.0, 330.5, 336.0, 326.0, 8.5, 338.5, 317.5, 
18:12:50.807089, 286.5, 303.5, 6.5, 295.0, 311.5, 321.0, 326.0, 308.5, 319.0, 633.5, 307.5, 324.5, 
18:12:50.815084, 339.5, 341.5, 619.0, 353.5, 337.5, 332.5, 332.5, 334.0, 320.5, 6.0, 335.5, 315.0, 
18:12:50.823078, 311.0, 303.5, 41.5, 294.5, 309.5, 314.5, 321.5, 304.0, 317.0, 635.0, 311.5, 329.5, 
18:12:50.831072, 333.5, 334.5, 547.0, 347.5, 339.5, 338.5, 333.0, 339.0, 324.5, 9.0, 338.0, 312.0, 
18:12:50.839067, 317.0, 309.0, 114.5, 303.0, 314.0, 318.5, 325.5, 304.5, 318.5, 632.0, 305.5, 331.5, 
18:12:50.847063, 329.0, 333.0, 407.0, 338.0, 329.0, 328.0, 328.0, 335.0, 327.0, 175.0, 345.0, 322.0, 
18:12:50.855057, 325.5, 325.5, 456.5, 329.5, 326.0, 327.0, 329.5, 322.5, 317.5, 238.0, 316.5, 323.0, 
18:12:50.863052, 291.5, 314.5, 178.5, 313.0, 318.5, 326.0, 329.0, 318.5, 324.0, 579.5, 324.0, 321.0, 
18:12:50.871048, 338.0, 328.5, 480.5, 336.0, 330.0, 327.0, 329.5, 325.0, 320.5, 115.5, 321.5, 319.5, 
18:12:50.879069, 318.0, 313.0, 153.5, 309.0, 316.0, 322.5, 328.0, 317.5, 323.0, 635.0, 319.0, 322.5, 
18:12:50.887067, 339.0, 326.5, 518.0, 335.0, 330.0, 328.5, 328.0, 326.5, 317.5, 44.0, 320.5, 319.5, 
18:12:50.895058, 328.0, 314.0, 129.0, 312.5, 318.5, 323.0, 325.5, 314.0, 322.5, 633.0, 317.0, 325.0, 
18:12:50.903054, 324.5, 330.5, 551.5, 335.5, 330.0, 320.0, 329.0, 325.0, 319.5, 4.5, 330.5, 316.5, 
18:12:50.911020, 308.0, 310.5, 108.0, 308.0, 317.5, 334.5, 332.0, 313.0, 320.5, 632.5, 313.0, 326.5, 
18:12:50.919014, 334.5, 330.5, 589.0, 340.5, 335.0, 327.0, 330.5, 330.0, 319.5, 6.0, 320.0, 315.0, 
18:12:50.927009, 282.0, 310.0, 92.0, 303.0, 314.0, 319.0, 324.0, 311.5, 321.0, 633.5, 317.0, 327.5, 
18:12:50.935004, 348.0, 337.0, 633.5, 343.5, 333.5, 331.5, 331.5, 331.0, 319.0, 7.5, 328.0, 316.5, 
18:12:50.943027, 281.0, 303.0, 52.0, 301.0, 314.0, 323.5, 327.0, 311.5, 319.5, 633.5, 310.0, 325.0, 
18:12:50.951015, 341.5, 340.5, 618.5, 351.0, 336.5, 332.0, 332.0, 334.0, 321.5, 6.0, 330.5, 314.5, 
18:12:50.959016, 299.0, 299.0, 17.5, 295.5, 311.0, 318.0, 323.5, 304.0, 316.5, 634.5, 308.0, 327.0, 
18:12:50.966982, 339.0, 343.0, 556.5, 352.0, 338.5, 335.0, 333.0, 336.5, 320.0, 5.5, 327.5, 312.5, 
18:12:50.974977, 292.5, 312.5, 101.0, 303.0, 314.5, 321.0, 327.5, 306.0, 320.5, 633.0, 308.5, 329.5, 
18:12:50.982972, 352.0, 325.5, 528.0, 341.0, 334.0, 329.5, 329.0, 337.0, 323.5, 70.0, 340.5, 309.0, 
18:12:50.990971, 294.5, 310.5, 121.5, 307.0, 313.0, 323.0, 324.0, 307.5, 321.5, 635.5, 308.0, 333.0, 
18:12:50.998961, 339.5, 336.5, 520.5, 346.0, 334.5, 330.0, 333.5, 334.5, 324.0, 176.0, 334.5, 317.5, 
18:12:51.006960, 291.0, 305.0, 136.5, 293.5, 309.5, 312.5, 319.5, 305.5, 317.0, 484.0, 302.0, 319.0, 
18:12:51.014951, 341.0, 327.5, 490.5, 346.0, 337.5, 337.0, 334.0, 337.5, 324.0, 289.5, 337.0, 321.5, 
18:12:51.022949, 329.0, 368.0, 174.0, 301.0, 314.5, 314.0, 323.5, 305.5, 317.0, 391.0, 309.5, 320.0, 
18:12:51.030940, 323.5, 317.0, 439.0, 385.0, 337.0, 343.5, 335.5, 336.0, 326.5, 322.0, 332.5, 330.0, 
18:12:51.038939, 287.5, 338.5, 211.5, 261.5, 315.0, 305.0, 322.0, 305.0, 313.5, 349.5, 302.5, 296.5, 
18:12:51.046929, 348.5, 280.0, 445.5, 353.5, 329.5, 326.5, 326.0, 332.0, 323.0, 320.0, 333.5, 312.5, 
18:12:51.054927, 309.5, 315.5, 238.0, 297.5, 316.5, 320.0, 328.0, 311.5, 321.0, 321.0, 310.5, 327.0, 
18:12:51.062922, 345.0, 326.5, 423.5, 314.5, 329.0, 325.5, 327.5, 328.0, 318.0, 319.0, 329.5, 301.5, 
18:12:51.070913, 329.5, 320.0, 256.0, 322.0, 320.5, 329.0, 332.0, 312.5, 318.0, 320.0, 311.5, 334.5, 
18:12:51.078907, 331.0, 332.5, 380.5, 337.0, 331.0, 329.5, 332.0, 333.5, 326.5, 319.5, 336.5, 313.0, 
18:12:51.086902, 329.5, 310.5, 246.0, 305.5, 322.5, 323.5, 330.0, 313.0, 318.0, 319.5, 304.5, 323.0, 
18:12:51.094897, 325.0, 322.5, 331.5, 354.5, 326.5, 333.0, 331.0, 328.5, 323.0, 319.5, 329.5, 324.5, 
18:12:51.102892, 322.0, 296.0, 269.0, 280.5, 319.0, 312.0, 327.0, 318.0, 322.5, 320.5, 313.5, 294.5, 
18:12:51.110886, 218.0, 306.0, 235.0, 331.0, 314.0, 333.0, 336.0, 314.0, 316.0, 635.0, 295.0, 341.0, 
18:12:51.118881, 347.5, 318.5, 440.0, 353.0, 338.0, 333.5, 332.5, 332.5, 316.0, 5.5, 327.0, 315.5, 
18:12:51.126876, 299.0, 304.5, 187.5, 294.5, 314.0, 316.0, 324.5, 307.0, 322.5, 633.0, 311.5, 315.0, 
18:12:51.134870, 346.0, 338.0, 445.0, 349.0, 337.0, 333.5, 332.0, 335.5, 321.5, 7.5, 333.0, 312.0, 
18:12:51.142865, 286.0, 310.5, 213.5, 314.5, 313.5, 325.0, 327.5, 305.5, 319.0, 633.0, 305.5, 333.5, 
18:12:51.150859, 349.0, 335.5, 423.5, 321.0, 334.0, 328.0, 330.5, 336.0, 322.5, 47.0, 335.5, 297.5, 
18:12:51.158884, 273.5, 303.5, 215.5, 323.5, 315.5, 323.5, 327.5, 307.5, 318.5, 589.0, 304.0, 337.5, 
18:12:51.166849, 353.5, 335.0, 426.5, 337.0, 334.5, 330.5, 330.5, 337.0, 323.5, 197.5, 338.5, 314.0, 
18:12:51.174844, 333.5, 304.0, 219.0, 315.5, 312.5, 322.0, 325.0, 309.5, 319.5, 467.0, 307.0, 337.0, 
18:12:51.182838, 326.5, 336.0, 414.5, 342.0, 333.5, 332.0, 329.5, 334.0, 323.5, 293.0, 334.5, 316.5, 
18:12:51.190833, 305.5, 313.5, 234.0, 308.5, 316.5, 322.5, 328.5, 307.0, 318.0, 400.0, 307.0, 319.5, 
18:12:51.198828, 343.5, 336.5, 397.0, 334.0, 337.5, 331.0, 334.0, 335.5, 322.0, 320.0, 334.5, 315.5, 
18:12:51.206822, 299.0, 315.0, 248.5, 314.5, 314.5, 321.0, 323.5, 306.0, 317.5, 360.5, 306.5, 324.0, 
18:12:51.214818, 353.5, 337.0, 388.0, 332.0, 332.5, 328.5, 331.0, 332.0, 320.0, 320.0, 333.0, 313.0, 
18:12:51.222811, 311.5, 311.5, 257.0, 310.0, 316.5, 325.5, 331.0, 314.0, 320.5, 319.5, 308.0, 317.5, 
18:12:51.230806, 344.5, 330.5, 375.0, 331.0, 329.0, 322.5, 331.5, 329.0, 320.5, 319.0, 331.0, 316.5, 
18:12:51.238801, 313.5, 319.0, 267.0, 312.5, 317.0, 324.0, 329.5, 311.0, 322.0, 321.0, 314.0, 331.0, 
18:12:51.246796, 327.0, 321.5, 366.5, 331.5, 331.0, 328.0, 339.0, 330.5, 324.5, 321.0, 331.5, 319.5, 
18:12:51.254794, 320.5, 311.5, 267.5, 313.0, 315.5, 317.5, 321.5, 310.5, 318.0, 319.5, 306.5, 337.0, 
18:12:51.262789, 306.5, 332.5, 358.5, 333.0, 329.0, 333.5, 336.0, 331.0, 323.5, 320.5, 334.0, 320.0, 
18:12:51.270784, 334.0, 305.5, 292.5, 320.5, 321.5, 322.5, 325.0, 314.0, 316.0, 319.5, 304.5, 319.5, 
18:12:51.278778, 296.0, 327.0, 355.0, 328.0, 325.5, 328.0, 329.0, 325.5, 322.5, 320.0, 337.0, 322.5, 
18:12:51.286769, 334.5, 319.0, 292.5, 320.5, 325.0, 325.5, 331.0, 316.0, 319.0, 320.0, 305.0, 317.0, 
18:12:51.294763, 302.0, 319.0, 299.5, 325.5, 326.5, 326.0, 328.0, 325.5, 321.5, 320.0, 324.5, 318.5, 
18:12:51.302758, 337.0, 326.5, 351.5, 321.5, 325.0, 323.0, 331.5, 321.5, 320.5, 321.0, 316.0, 309.0, 
18:12:51.310753, 306.0, 319.5, 312.5, 329.5, 324.0, 343.0, 324.0, 319.5, 316.0, 356.5, 320.0, 320.0, 
18:12:51.318747, 336.5, 323.5, 343.5, 318.0, 329.0, 341.5, 327.0, 322.0, 319.0, 292.0, 316.5, 332.0, 
18:12:51.326743, 301.0, 322.0, 301.5, 320.0, 324.0, 329.0, 350.0, 322.5, 327.5, 497.0, 331.0, 291.5, 
18:12:51.334737, 336.5, 324.0, 366.0, 323.0, 324.5, 335.0, 329.5, 324.0, 320.0, 163.5, 324.0, 306.5, 
18:12:51.342731, 245.0, 305.0, 188.0, 314.0, 313.0, 323.0, 315.0, 306.0, 320.0, 632.0, 309.0, 332.0, 
18:12:51.350727, 343.5, 340.0, 436.5, 342.5, 336.0, 339.5, 332.0, 331.5, 320.0, 319.5, 335.0, 319.0, 
18:12:51.358721, 300.0, 309.0, 210.0, 306.5, 314.5, 311.5, 323.5, 308.0, 319.0, 420.0, 306.5, 321.5, 
18:12:51.366716, 352.5, 338.5, 393.0, 338.0, 333.0, 331.0, 332.0, 335.0, 322.0, 320.5, 333.5, 318.0, 
18:12:51.374711, 305.0, 300.5, 244.0, 311.5, 316.0, 319.5, 325.0, 307.0, 322.0, 369.0, 311.0, 326.0, 
18:12:51.382706, 354.5, 334.0, 401.0, 330.0, 327.0, 328.0, 328.5, 329.0, 319.0, 320.5, 328.0, 314.0, 
18:12:51.390729, 334.0, 305.0, 208.5, 316.0, 321.5, 322.0, 326.5, 314.0, 320.0, 328.0, 307.5, 331.0, 
18:12:51.398695, 325.0, 331.5, 377.5, 334.5, 330.5, 327.5, 329.0, 329.0, 321.0, 320.5, 333.0, 308.5, 
18:12:51.406689, 292.0, 310.0, 220.0, 309.5, 317.5, 316.5, 332.0, 312.5, 321.5, 320.0, 309.5, 327.5, 
18:12:51.414684, 331.0, 327.0, 381.0, 338.5, 330.0, 334.0, 326.5, 329.5, 319.5, 320.0, 333.0, 319.5, 
18:12:51.422711, 323.0, 309.0, 265.5, 317.5, 323.0, 325.5, 328.0, 314.0, 320.5, 319.5, 310.0, 318.0, 
18:12:51.430701, 311.5, 331.5, 399.0, 329.0, 326.0, 325.0, 328.0, 325.5, 318.5, 321.0, 332.5, 325.5, 
18:12:51.438696, 332.5, 314.0, 291.0, 317.0, 323.5, 322.0, 332.0, 314.0, 320.0, 319.5, 312.5, 326.5, 
18:12:51.446661, 292.5, 329.0, 336.5, 327.0, 326.5, 327.5, 326.0, 323.5, 321.0, 321.5, 328.0, 303.5, 
18:12:51.454658, 334.5, 319.0, 340.0, 322.0, 326.0, 326.0, 331.5, 319.5, 321.5, 319.5, 317.0, 323.5, 
18:12:51.462680, 299.0, 321.0, 313.5, 327.0, 324.5, 328.5, 329.5, 324.5, 321.0, 320.0, 326.5, 318.0, 
18:12:51.470646, 335.5, 322.0, 351.0, 319.5, 323.0, 321.0, 327.0, 321.5, 320.5, 321.0, 311.5, 323.0, 
18:12:51.478670, 302.5, 318.5, 240.0, 323.5, 322.0, 319.5, 327.0, 324.0, 322.5, 357.5, 325.0, 319.5, 
18:12:51.486635, 337.0, 323.5, 408.5, 327.5, 326.5, 332.5, 338.0, 321.5, 321.0, 319.5, 318.5, 323.5, 
18:12:51.494630, 294.5, 316.5, 206.0, 318.5, 319.5, 324.5, 325.0, 319.5, 322.0, 524.0, 321.5, 319.0, 
18:12:51.502629, 338.5, 327.5, 448.0, 330.0, 327.0, 325.0, 327.5, 323.5, 320.0, 144.0, 321.0, 319.0, 
18:12:51.510624, 306.0, 320.5, 150.5, 314.5, 320.0, 325.5, 329.0, 316.5, 320.0, 634.0, 315.5, 320.5, 
18:12:51.518614, 334.0, 325.5, 496.5, 332.0, 327.5, 327.5, 330.0, 326.0, 319.5, 58.5, 323.5, 321.5, 
18:12:51.526609, 325.0, 314.5, 64.5, 316.5, 320.0, 324.5, 328.5, 318.0, 325.0, 633.0, 319.0, 324.0, 
18:12:51.534603, 344.5, 327.0, 597.5, 332.5, 329.5, 329.5, 330.0, 328.5, 320.5, 8.0, 325.0, 317.5, 
18:12:51.542602, 325.0, 311.5, 4.5, 310.5, 317.0, 323.0, 327.0, 313.5, 322.0, 633.5, 317.5, 321.0, 
18:12:51.550593, 334.5, 332.5, 634.0, 337.5, 333.5, 330.5, 332.0, 327.0, 318.5, 5.5, 325.0, 315.5, 
18:12:51.558588, 326.0, 308.0, 6.5, 309.0, 313.5, 324.5, 327.5, 311.5, 320.0, 633.5, 315.0, 324.5, 
18:12:51.566583, 323.0, 333.5, 635.5, 342.0, 337.0, 327.0, 329.5, 330.5, 319.0, 5.0, 327.5, 316.5, 
18:12:51.574581, 263.5, 304.0, 8.5, 308.0, 314.5, 322.5, 327.0, 308.0, 320.5, 632.5, 314.0, 327.0, 
18:12:51.582572, 349.0, 338.5, 596.5, 344.0, 334.5, 332.5, 332.0, 332.0, 319.0, 6.0, 327.5, 313.5, 
18:12:51.590566, 330.0, 304.0, 5.5, 300.5, 309.5, 322.0, 328.5, 306.5, 319.5, 634.0, 304.0, 327.0, 
18:12:51.598562, 324.5, 336.0, 475.5, 346.0, 337.0, 334.0, 331.5, 337.5, 322.5, 7.5, 337.0, 313.5, 
18:12:51.606555, 322.5, 307.5, 224.5, 302.0, 311.0, 317.0, 325.0, 304.0, 318.0, 632.5, 304.5, 327.0, 
18:12:51.614549, 323.0, 336.0, 319.0, 340.5, 333.0, 330.0, 329.5, 338.5, 324.5, 33.0, 335.5, 312.0, 
18:12:51.622545, 263.5, 309.0, 323.0, 308.0, 317.0, 322.5, 328.5, 308.5, 318.0, 597.0, 307.5, 330.5, 
18:12:51.630540, 349.5, 333.5, 319.5, 343.0, 334.0, 330.0, 329.0, 336.0, 321.5, 243.0, 339.0, 312.0, 
18:12:51.638536, 334.0, 312.0, 634.0, 317.0, 320.0, 321.0, 327.0, 312.0, 318.0, 176.0, 307.0, 331.0, 
18:12:51.646529, 327.0, 323.0, 6.0, 311.5, 316.5, 322.0, 324.0, 313.5, 321.5, 636.5, 321.0, 320.5, 
18:12:51.654524, 323.5, 314.0, 634.0, 330.5, 328.0, 325.5, 328.5, 327.5, 320.5, 17.5, 329.0, 318.0, 
18:12:51.662519, 324.0, 314.0, 4.5, 316.0, 319.5, 326.0, 329.5, 314.5, 321.5, 632.5, 315.0, 323.5, 
18:12:51.670513, 324.0, 330.5, 636.0, 337.0, 331.5, 328.0, 330.5, 326.5, 319.0, 5.0, 326.0, 317.0, 
18:12:51.678508, 322.0, 310.0, 7.0, 314.5, 319.0, 326.0, 327.5, 314.5, 323.0, 633.0, 316.0, 327.5, 
18:12:51.686503, 323.0, 335.5, 633.5, 334.5, 332.0, 326.0, 329.5, 327.0, 320.5, 8.5, 327.5, 312.0, 
18:12:51.694525, 286.5, 313.0, 6.0, 306.0, 313.0, 320.0, 326.0, 308.5, 319.5, 635.0, 313.5, 328.0, 
18:12:51.702492, 339.5, 323.5, 634.5, 344.5, 340.0, 332.0, 333.5, 336.0, 322.5, 5.5, 328.0, 314.5, 
18:12:51.710486, 302.5, 303.5, 4.5, 300.5, 312.0, 321.5, 326.0, 306.5, 318.5, 634.0, 308.5, 325.0, 
18:12:51.718481, 334.0, 324.0, 557.0, 342.5, 335.5, 331.0, 332.0, 337.5, 324.0, 6.0, 336.0, 311.5, 
18:12:51.726476, 295.5, 309.0, 159.0, 307.5, 313.0, 323.5, 328.0, 305.0, 319.0, 632.5, 307.5, 333.0, 
18:12:51.734469, 341.0, 321.5, 403.5, 339.5, 334.0, 328.5, 329.5, 334.0, 319.0, 8.0, 335.5, 307.0, 
18:12:51.742465, 285.5, 315.0, 634.5, 309.0, 315.0, 319.5, 327.5, 308.0, 323.0, 635.5, 310.5, 327.0, 
18:12:51.750463, 347.0, 349.0, 636.0, 333.5, 334.0, 328.0, 330.0, 336.0, 324.5, 114.5, 333.0, 308.0, 
18:12:51.758454, 330.0, 336.5, 635.0, 314.5, 317.5, 326.5, 329.5, 308.5, 317.0, 556.0, 308.5, 330.5, 
18:12:51.766449, 325.5, 339.5, 634.5, 337.5, 334.5, 328.0, 328.5, 330.0, 322.5, 262.0, 339.5, 305.5, 
18:12:51.774444, 292.5, 293.5, 100.0, 308.0, 311.5, 319.0, 324.0, 303.0, 315.0, 434.5, 303.0, 323.5, 
18:12:51.782441, 345.0, 332.5, 145.5, 343.5, 337.5, 333.0, 333.0, 340.5, 330.0, 321.0, 340.5, 311.0, 
18:12:51.790433, 331.0, 299.5, 6.5, 319.0, 313.5, 322.5, 326.5, 306.0, 317.0, 328.0, 307.5, 333.0, 
18:12:51.798428, 324.0, 350.0, 222.0, 369.0, 333.5, 331.0, 330.0, 331.5, 323.0, 321.0, 328.0, 334.0, 
18:12:51.806422, 296.5, 288.5, 115.0, 271.0, 316.0, 315.0, 326.5, 314.5, 319.5, 320.0, 298.0, 296.0, 
18:12:51.814417, 332.5, 326.5, 308.0, 337.5, 328.5, 332.0, 332.0, 329.0, 321.5, 320.0, 336.0, 315.0, 
18:12:51.822412, 331.0, 321.0, 179.0, 316.0, 320.0, 322.5, 328.0, 311.0, 317.5, 319.0, 311.0, 336.5, 
18:12:51.830407, 308.0, 316.5, 321.5, 301.0, 328.0, 322.5, 328.5, 329.5, 322.0, 321.0, 336.0, 282.5, 
18:12:51.838401, 332.5, 321.0, 238.0, 326.0, 319.5, 326.5, 329.0, 314.0, 319.0, 319.5, 310.5, 337.0, 
18:12:51.846396, 302.0, 315.5, 315.5, 333.5, 326.0, 325.5, 327.0, 325.0, 320.5, 320.5, 326.0, 323.0, 
18:12:51.854390, 337.0, 330.0, 319.5, 322.5, 322.5, 324.5, 328.0, 319.0, 320.5, 322.0, 314.5, 331.0, 
18:12:51.862385, 302.5, 332.5, 310.5, 329.5, 325.5, 328.5, 329.5, 320.5, 320.5, 320.0, 326.5, 317.5, 
18:12:51.870380, 337.0, 313.0, 368.0, 334.0, 326.0, 327.5, 330.0, 318.5, 317.5, 319.5, 317.5, 325.5, 
18:12:51.878374, 307.5, 322.5, 270.5, 333.5, 325.0, 322.0, 327.5, 323.5, 322.5, 367.5, 325.5, 328.0, 
18:12:51.886369, 332.0, 323.0, 383.0, 306.0, 327.5, 324.5, 330.0, 321.0, 318.5, 313.0, 316.0, 285.5, 
18:12:51.894396, 297.5, 320.0, 251.5, 326.5, 320.0, 327.5, 330.0, 319.0, 321.0, 506.0, 329.5, 324.5, 
18:12:51.902359, 331.0, 327.5, 402.5, 336.0, 328.5, 328.5, 332.0, 325.5, 322.0, 165.5, 322.5, 324.5, 
18:12:51.910353, 301.0, 314.5, 232.5, 311.5, 320.5, 323.5, 327.5, 318.0, 324.5, 634.5, 322.5, 322.0, 
18:12:51.918360, 330.5, 324.5, 402.0, 331.0, 331.5, 329.0, 331.5, 327.0, 319.0, 84.5, 321.0, 318.5, 
18:12:51.926343, 323.0, 320.0, 244.0, 318.5, 319.0, 324.5, 326.0, 311.5, 319.0, 633.5, 317.0, 323.0, 
18:12:51.934337, 337.5, 324.0, 386.5, 329.0, 331.0, 327.5, 330.5, 329.5, 319.0, 27.0, 324.5, 319.5, 
18:12:51.942332, 320.5, 313.0, 237.5, 322.0, 322.0, 325.0, 330.0, 316.5, 323.0, 633.5, 316.0, 328.5, 
18:12:51.950325, 336.0, 326.5, 408.0, 329.5, 327.0, 325.5, 326.5, 324.5, 318.5, 7.5, 323.0, 312.5, 
18:12:51.958321, 276.0, 311.0, 108.0, 307.0, 307.0, 313.0, 328.0, 302.0, 321.0, 637.0, 307.0, 336.0, 
18:12:51.966319, 347.0, 316.0, 397.5, 332.0, 334.0, 335.5, 332.0, 334.0, 323.5, 320.0, 330.0, 314.5, 
18:12:51.974310, 313.5, 313.5, 245.0, 310.5, 314.0, 314.0, 324.5, 308.0, 318.5, 322.0, 313.5, 321.0, 
18:12:51.982305, 342.0, 338.0, 376.0, 339.5, 331.5, 335.0, 327.0, 332.5, 321.0, 320.5, 327.5, 321.5, 
18:12:51.990300, 328.0, 323.0, 253.5, 317.0, 321.0, 322.0, 327.5, 310.5, 320.5, 320.0, 317.0, 317.5, 
18:12:51.998295, 321.0, 332.5, 361.5, 329.5, 334.5, 328.5, 332.5, 335.0, 326.0, 320.0, 326.5, 308.0, 
18:12:52.006289, 325.0, 318.5, 268.0, 311.5, 315.0, 323.0, 321.5, 308.5, 315.0, 321.5, 307.0, 329.5, 
18:12:52.014284, 299.5, 312.0, 331.5, 328.5, 325.5, 323.5, 329.0, 322.5, 320.0, 321.5, 319.0, 315.0, 
18:12:52.022278, 330.5, 325.5, 325.5, 322.5, 324.0, 321.0, 327.5, 318.5, 323.0, 320.5, 325.0, 318.0, 
18:12:52.030272, 318.0, 322.5, 282.5, 327.5, 324.5, 329.0, 328.0, 323.5, 321.5, 320.0, 320.5, 315.0, 
18:12:52.038268, 326.0, 327.5, 351.0, 328.0, 331.0, 325.5, 331.0, 324.5, 323.0, 294.5, 317.5, 332.5, 
18:12:52.046263, 304.0, 312.0, 309.0, 324.0, 319.5, 325.5, 327.0, 321.0, 321.0, 321.0, 324.0, 329.0, 
18:12:52.054257, 329.5, 328.5, 373.0, 334.0, 332.0, 332.0, 334.5, 324.0, 320.0, 143.0, 316.5, 329.0, 
18:12:52.062252, 302.5, 310.0, 255.5, 313.0, 318.0, 318.5, 326.0, 318.0, 319.0, 434.0, 315.0, 316.0, 
18:12:52.070246, 328.5, 329.5, 434.0, 331.5, 331.0, 326.0, 330.0, 324.0, 319.5, 65.0, 319.0, 326.5, 
18:12:52.078241, 304.5, 320.0, 212.0, 321.5, 319.5, 328.5, 329.0, 313.5, 319.5, 613.0, 318.0, 331.0, 
18:12:52.086234, 330.5, 306.0, 443.5, 327.5, 331.0, 327.0, 330.0, 330.0, 322.5, 23.0, 322.5, 321.0, 
18:12:52.094230, 323.0, 319.5, 209.5, 317.5, 317.5, 319.0, 325.0, 314.0, 322.5, 634.0, 320.0, 331.0, 
18:12:52.102226, 333.5, 332.5, 477.0, 328.5, 329.5, 328.0, 330.0, 326.5, 317.0, 27.0, 326.5, 317.5, 
18:12:52.110218, 322.0, 313.5, 153.5, 316.0, 316.5, 323.0, 326.0, 311.5, 323.0, 635.5, 320.0, 320.0, 
18:12:52.118215, 334.5, 331.0, 507.5, 336.5, 333.0, 331.0, 331.0, 328.5, 320.5, 113.5, 329.0, 314.5, 
18:12:52.126208, 306.5, 312.5, 91.0, 314.0, 314.5, 322.5, 326.0, 310.0, 320.0, 633.5, 311.5, 328.5, 
18:12:52.134203, 334.0, 328.5, 542.5, 336.0, 334.0, 327.5, 331.5, 332.0, 320.0, 139.0, 324.0, 315.0, 
18:12:52.142198, 306.5, 310.5, 55.5, 309.5, 315.5, 322.5, 326.5, 310.5, 321.5, 634.5, 319.5, 323.5, 
18:12:52.150194, 338.5, 332.0, 607.5, 337.0, 332.5, 328.0, 330.5, 336.0, 325.0, 8.0, 330.0, 312.5, 
18:12:52.158188, 285.5, 308.5, 6.5, 307.0, 311.0, 321.5, 326.5, 306.0, 317.0, 633.0, 310.0, 330.5, 
18:12:52.166183, 342.5, 338.0, 635.0, 343.0, 337.0, 331.0, 331.0, 334.0, 322.5, 7.0, 332.0, 313.5, 
18:12:52.174177, 283.5, 305.0, 6.0, 299.5, 312.0, 319.5, 324.5, 304.5, 319.5, 634.5, 301.5, 328.5, 
18:12:52.182170, 349.5, 332.5, 553.0, 344.5, 338.5, 334.5, 334.5, 338.5, 323.5, 6.5, 335.0, 313.5, 
18:12:52.190167, 290.0, 310.0, 69.5, 306.5, 314.0, 319.0, 325.0, 307.0, 322.0, 621.0, 305.5, 324.5, 
18:12:52.198162, 346.5, 331.5, 318.5, 338.0, 334.5, 333.5, 333.5, 336.0, 320.5, 66.0, 334.0, 312.5, 
18:12:52.206156, 274.0, 309.5, 261.5, 306.0, 315.0, 320.0, 327.5, 310.5, 322.0, 572.5, 315.5, 324.5, 
18:12:52.214151, 357.5, 332.5, 318.0, 343.0, 337.5, 333.5, 333.0, 334.0, 320.0, 299.5, 321.0, 312.0, 
18:12:52.222145, 337.0, 313.0, 633.0, 314.0, 319.0, 320.0, 327.0, 311.0, 317.0, 307.0, 321.0, 330.0, 
18:12:52.230140, 309.0, 316.0, 6.5, 314.5, 318.0, 326.0, 327.5, 318.0, 323.5, 634.5, 324.0, 326.0, 
18:12:52.238135, 341.0, 324.0, 633.0, 332.5, 329.5, 327.5, 330.5, 328.5, 320.0, 49.0, 322.5, 317.0, 
18:12:52.246128, 313.5, 316.0, 7.5, 317.5, 322.5, 325.0, 327.0, 314.5, 323.0, 634.5, 319.0, 326.5, 
18:12:52.254124, 343.5, 329.0, 634.5, 333.5, 328.5, 325.0, 328.5, 324.5, 319.0, 6.5, 325.0, 318.5, 
18:12:52.262119, 281.5, 313.5, 7.0, 309.0, 315.0, 321.5, 325.5, 313.0, 320.0, 634.0, 318.0, 325.5, 
18:12:52.270113, 350.0, 331.0, 633.5, 340.0, 336.5, 331.5, 333.0, 336.5, 323.5, 6.5, 326.5, 316.5, 
18:12:52.278135, 281.0, 308.0, 5.0, 303.5, 314.0, 323.5, 328.5, 308.5, 320.0, 633.0, 309.0, 324.5, 
18:12:52.286104, 348.5, 334.5, 609.0, 341.5, 335.0, 331.5, 331.5, 331.5, 321.0, 7.5, 331.0, 315.0, 
18:12:52.294126, 284.5, 304.5, 5.5, 298.5, 309.0, 317.5, 323.5, 309.0, 321.0, 634.5, 310.5, 326.0, 
18:12:52.302120, 343.0, 334.5, 494.5, 346.0, 336.0, 332.0, 333.5, 336.0, 321.0, 7.0, 333.0, 314.5, 
18:12:52.310112, 276.0, 306.0, 178.5, 302.0, 312.5, 320.5, 327.5, 306.5, 319.5, 634.0, 307.5, 326.5, 
18:12:52.318130, 361.0, 334.5, 318.5, 341.0, 336.5, 335.0, 334.0, 339.0, 322.5, 19.0, 334.5, 311.0, 
18:12:52.326105, 263.5, 308.5, 310.5, 308.5, 314.0, 319.0, 325.0, 305.0, 320.0, 578.0, 304.0, 329.0, 
18:12:52.334126, 372.5, 332.0, 319.0, 341.0, 333.5, 331.5, 333.0, 336.5, 322.0, 91.5, 337.0, 313.0, 
18:12:52.342097, 302.0, 310.5, 320.0, 304.0, 315.0, 319.0, 324.5, 308.5, 321.0, 362.0, 304.5, 328.0, 
18:12:52.350059, 358.0, 337.0, 319.5, 340.5, 332.5, 331.0, 332.0, 335.0, 323.5, 260.0, 336.0, 314.5, 
18:12:52.358055, 333.5, 309.0, 320.0, 308.5, 312.0, 317.0, 325.0, 308.5, 318.0, 321.0, 302.5, 327.0, 
18:12:52.366051, 325.0, 331.5, 318.0, 331.0, 331.5, 329.5, 332.0, 336.0, 325.0, 288.0, 337.0, 310.5, 
18:12:52.374044, 291.0, 322.5, 634.0, 311.5, 316.0, 320.0, 326.0, 311.5, 321.0, 319.5, 311.5, 328.5, 
18:12:52.382038, 339.5, 326.5, 634.0, 335.5, 330.0, 331.0, 332.5, 333.0, 323.0, 321.0, 326.5, 316.0, 
18:12:52.390033, 317.5, 326.0, 636.0, 317.0, 317.5, 321.0, 326.0, 309.0, 318.0, 407.5, 310.5, 331.5, 
18:12:52.398056, 327.0, 324.5, 634.0, 332.5, 331.5, 329.5, 328.5, 329.0, 319.5, 320.0, 330.5, 312.0, 
18:12:52.406054, 323.0, 296.5, 331.5, 321.0, 322.0, 326.5, 331.0, 312.5, 319.0, 319.0, 309.5, 331.0, 
18:12:52.414016, 301.5, 323.5, 179.5, 325.0, 329.0, 326.0, 329.0, 330.5, 324.5, 320.0, 330.0, 308.0, 
18:12:52.422069, 311.0, 339.5, 180.0, 322.5, 322.5, 330.0, 331.5, 316.5, 321.0, 318.5, 314.5, 332.0, 
18:12:52.430008, 300.5, 312.5, 145.0, 331.0, 327.5, 326.0, 327.5, 325.0, 320.5, 318.5, 333.5, 320.0, 
18:12:52.438005, 343.0, 336.5, 191.0, 316.5, 322.0, 324.5, 331.5, 317.0, 316.0, 312.0, 310.5, 316.5, 
18:12:52.446001, 315.5, 332.5, 139.5, 325.5, 326.0, 328.0, 330.0, 321.5, 321.5, 319.0, 316.0, 323.0, 
18:12:52.453991, 331.0, 316.0, 315.5, 323.0, 329.0, 328.0, 331.0, 324.5, 322.5, 6.0, 323.5, 321.5, 
18:12:52.462017, 286.0, 304.5, 177.0, 324.0, 318.5, 323.0, 326.5, 314.5, 318.5, 321.0, 324.5, 318.5, 
18:12:52.470011, 340.5, 326.0, 388.5, 328.5, 329.5, 327.5, 329.5, 326.5, 320.5, 7.0, 314.0, 325.0, 
18:12:52.478032, 322.5, 322.0, 167.0, 333.0, 319.0, 329.0, 329.5, 315.0, 322.0, 321.0, 322.5, 338.0, 
18:12:52.485970, 342.0, 323.5, 406.0, 308.5, 329.0, 319.5, 327.5, 327.0, 320.5, 6.0, 328.0, 301.0, 
18:12:52.494030, 329.5, 318.0, 154.5, 316.0, 318.0, 323.0, 326.5, 312.0, 319.0, 268.0, 310.0, 325.0, 
18:12:52.501959, 324.5, 327.5, 476.5, 346.0, 333.0, 332.0, 332.0, 327.5, 322.5, 7.0, 326.5, 323.5, 
18:12:52.510011, 292.0, 321.0, 131.5, 319.0, 315.0, 323.5, 327.0, 313.0, 323.0, 633.5, 311.0, 320.5, 
18:12:52.517948, 336.5, 298.5, 501.5, 303.0, 335.0, 323.0, 329.5, 329.0, 318.0, 54.0, 324.0, 289.5, 
18:12:52.525947, 291.5, 314.5, 117.5, 325.5, 314.0, 322.5, 326.5, 309.5, 321.0, 632.5, 313.0, 343.5, 
18:12:52.533937, 341.5, 333.0, 522.5, 336.0, 332.5, 331.5, 332.5, 332.5, 322.5, 221.0, 333.5, 315.0, 
18:12:52.541936, 279.5, 307.5, 136.0, 316.0, 314.5, 322.0, 326.0, 306.5, 317.5, 630.5, 310.5, 332.0, 
18:12:52.549928, 343.5, 335.5, 507.0, 341.5, 334.5, 331.5, 333.5, 333.0, 320.5, 276.0, 329.5, 315.0, 
18:12:52.557921, 282.5, 304.0, 125.5, 309.5, 315.0, 320.5, 327.0, 310.5, 321.5, 633.5, 310.0, 326.0, 
18:12:52.565916, 350.5, 332.0, 504.5, 343.0, 336.5, 332.0, 331.0, 334.0, 320.0, 122.0, 329.5, 314.5, 
18:12:52.573910, 295.0, 306.5, 146.5, 308.0, 314.5, 320.0, 326.0, 307.0, 320.5, 632.5, 307.5, 325.5, 
18:12:52.581905, 352.0, 335.0, 475.0, 345.0, 339.0, 335.0, 334.0, 338.0, 323.0, 63.0, 339.0, 312.0, 
18:12:52.589900, 336.5, 321.5, 344.5, 326.5, 326.5, 324.5, 330.0, 318.0, 318.0, 320.0, 314.5, 324.0, 
18:12:52.597894, 311.0, 319.5, 291.5, 322.0, 320.5, 326.0, 326.0, 325.5, 324.0, 417.5, 325.5, 323.0, 
18:12:52.605889, 334.5, 324.0, 354.0, 328.5, 329.0, 326.5, 332.0, 320.5, 320.0, 314.0, 312.5, 306.5, 
18:12:52.613884, 325.5, 329.0, 280.0, 322.5, 322.0, 325.5, 327.0, 318.5, 319.0, 502.5, 328.0, 319.0, 
18:12:52.621879, 323.5, 328.5, 381.5, 328.5, 327.0, 321.0, 327.5, 322.5, 321.5, 150.5, 324.0, 327.0, 
18:12:52.629873, 287.5, 316.0, 246.0, 318.5, 321.5, 335.0, 328.5, 319.5, 321.5, 600.5, 320.0, 326.5, 
18:12:52.637868, 339.5, 332.5, 388.0, 331.5, 328.5, 322.5, 331.5, 323.5, 320.0, 51.5, 324.5, 316.0, 
18:12:52.645863, 317.0, 308.0, 250.5, 316.0, 316.5, 324.5, 323.5, 314.0, 320.5, 634.0, 319.5, 323.0, 
18:12:52.653857, 335.5, 338.5, 366.5, 330.5, 331.0, 325.5, 334.0, 330.0, 324.5, 22.5, 326.0, 314.5, 
18:12:52.661852, 322.0, 289.0, 253.5, 313.5, 315.0, 320.0, 324.0, 311.0, 316.5, 635.0, 314.5, 313.5, 
18:12:52.669846, 344.5, 334.5, 385.5, 330.0, 327.5, 329.0, 329.0, 328.0, 320.0, 7.5, 324.5, 321.5, 
18:12:52.677841, 316.0, 314.0, 203.5, 313.5, 319.5, 322.0, 327.0, 317.5, 322.5, 633.0, 316.0, 317.5, 
18:12:52.685836, 339.0, 324.5, 420.0, 333.5, 330.0, 328.5, 329.5, 325.0, 316.0, 7.5, 327.5, 317.5, 
18:12:52.693830, 295.5, 308.5, 178.0, 313.5, 320.5, 325.0, 329.5, 314.5, 327.0, 633.0, 315.0, 325.0, 
18:12:52.701826, 343.5, 334.0, 429.5, 336.0, 332.5, 327.5, 330.0, 330.0, 320.0, 7.5, 323.5, 316.5, 
18:12:52.709824, 249.0, 305.0, 177.5, 310.0, 316.0, 319.5, 328.0, 309.5, 320.5, 633.5, 317.5, 326.5, 
18:12:52.717815, 360.5, 333.5, 474.0, 341.5, 335.5, 336.0, 331.0, 332.0, 321.0, 7.0, 333.0, 322.0, 
18:12:52.725813, 257.5, 324.5, 150.5, 307.0, 311.5, 313.0, 321.0, 308.0, 322.0, 634.0, 307.5, 337.0, 
18:12:52.733834, 361.5, 332.0, 496.5, 340.0, 335.5, 330.5, 331.5, 336.0, 322.0, 6.5, 332.5, 317.5, 
18:12:52.741856, 262.5, 308.5, 170.5, 305.5, 310.5, 318.0, 323.5, 307.0, 321.0, 634.0, 299.0, 327.0, 
18:12:52.749794, 375.5, 335.5, 494.0, 341.5, 336.0, 331.5, 330.5, 333.5, 317.5, 64.0, 332.5, 307.5, 
18:12:52.757844, 286.0, 310.0, 168.5, 307.0, 313.5, 320.5, 326.5, 304.5, 320.0, 634.0, 310.0, 323.5, 
18:12:52.765783, 363.0, 335.0, 452.0, 341.0, 337.0, 333.5, 333.0, 338.5, 321.5, 116.0, 332.5, 313.5, 
18:12:52.773777, 293.0, 309.0, 192.5, 310.0, 314.0, 321.0, 326.0, 306.5, 318.5, 633.5, 304.0, 329.5, 
18:12:52.781772, 348.0, 336.0, 457.5, 334.5, 331.5, 325.5, 330.0, 334.5, 323.0, 211.5, 339.5, 303.0, 
18:12:52.789766, 262.0, 302.0, 160.0, 308.0, 313.5, 326.0, 330.5, 307.5, 318.0, 542.0, 303.5, 323.5, 
18:12:52.797762, 367.5, 335.0, 475.0, 339.0, 333.5, 330.5, 330.0, 333.0, 323.0, 321.0, 334.0, 319.0, 
18:12:52.805756, 344.0, 316.0, 264.0, 316.0, 327.0, 322.0, 329.0, 319.0, 320.0, 213.0, 306.0, 327.0, 
18:12:52.813750, 296.0, 315.5, 264.0, 315.5, 319.5, 325.5, 328.0, 314.0, 321.0, 633.0, 322.0, 322.5, 
18:12:52.821745, 362.5, 325.0, 377.5, 330.5, 328.0, 327.5, 329.5, 326.5, 319.0, 84.5, 320.5, 320.5, 
18:12:52.829740, 322.5, 312.5, 234.0, 313.5, 319.5, 323.0, 327.5, 313.0, 323.0, 634.0, 322.0, 312.5, 
18:12:52.837735, 355.0, 331.5, 413.5, 330.0, 330.0, 328.5, 330.0, 327.5, 318.0, 6.0, 322.5, 319.0, 
18:12:52.845730, 289.0, 307.5, 227.5, 315.0, 318.5, 324.5, 329.5, 315.0, 321.0, 634.0, 316.5, 324.0, 
18:12:52.853724, 357.0, 328.0, 442.5, 334.0, 331.5, 328.0, 332.0, 328.5, 320.5, 7.0, 323.0, 319.5, 
18:12:52.861719, 215.0, 307.5, 154.5, 308.5, 315.5, 321.0, 325.0, 310.5, 323.0, 634.5, 319.5, 324.0, 
18:12:52.869713, 392.5, 327.0, 459.0, 336.0, 331.0, 328.5, 331.5, 330.5, 320.0, 6.0, 322.5, 313.0, 
18:12:52.877708, 223.5, 311.0, 136.0, 309.0, 316.0, 323.0, 327.5, 310.0, 323.0, 618.5, 314.0, 329.0, 
18:12:52.885703, 389.5, 335.0, 516.5, 342.0, 334.5, 329.5, 331.5, 332.0, 321.0, 61.0, 329.0, 313.5, 
18:12:52.893730, 203.5, 307.0, 118.0, 304.0, 312.5, 318.5, 325.5, 310.0, 321.5, 581.5, 316.0, 327.0, 
18:12:52.901692, 395.0, 343.0, 599.5, 354.0, 341.5, 335.0, 333.5, 340.0, 323.0, 8.5, 336.5, 317.5, 
18:12:52.909686, 311.0, 303.5, 124.5, 303.5, 314.0, 318.5, 326.5, 304.5, 318.0, 632.0, 309.0, 318.0, 
18:12:52.917682, 351.5, 345.0, 525.0, 343.0, 336.0, 330.5, 332.5, 338.0, 322.5, 8.5, 334.0, 317.0, 
18:12:52.925704, 283.5, 304.0, 115.0, 301.5, 314.5, 318.5, 324.5, 304.0, 321.5, 635.0, 305.5, 329.0, 
18:12:52.933686, 360.0, 336.0, 495.0, 344.0, 335.0, 331.5, 331.0, 335.0, 320.5, 19.5, 338.0, 316.5, 
18:12:52.941693, 334.0, 305.0, 147.5, 308.5, 316.0, 320.5, 325.0, 305.0, 320.5, 583.0, 305.0, 328.5, 
18:12:52.949660, 327.5, 339.0, 495.5, 341.0, 334.0, 332.0, 332.5, 335.5, 323.5, 141.0, 340.0, 313.0, 
18:12:52.957654, 240.5, 300.5, 110.5, 301.0, 311.5, 318.0, 324.0, 306.5, 318.5, 513.5, 304.5, 327.5, 
18:12:52.965650, 363.0, 332.5, 439.0, 338.5, 332.0, 330.5, 330.0, 331.5, 324.0, 320.5, 334.0, 316.0, 
18:12:52.973702, 217.0, 304.5, 133.0, 301.0, 310.0, 318.5, 322.5, 303.0, 321.0, 625.5, 310.0, 328.0, 
18:12:52.981670, 337.5, 336.5, 484.0, 342.0, 335.0, 332.0, 330.5, 335.5, 322.5, 256.5, 341.5, 313.0, 
18:12:52.989634, 403.0, 314.5, 286.0, 318.5, 323.5, 322.5, 327.5, 313.0, 315.0, 366.0, 310.5, 327.5, 
18:12:52.997632, 355.5, 338.5, 504.5, 344.5, 337.5, 333.5, 334.5, 343.0, 326.0, 178.0, 342.0, 317.0, 
18:12:53.005623, 342.0, 309.0, 251.0, 309.5, 315.0, 319.5, 328.0, 313.0, 319.5, 288.0, 304.5, 327.5, 
18:12:53.013616, 328.0, 335.5, 415.5, 336.0, 332.5, 339.0, 332.5, 329.0, 316.5, 137.5, 325.0, 314.0, 
18:12:53.021612, 324.5, 311.5, 193.0, 308.0, 316.5, 310.5, 323.0, 307.5, 318.0, 319.5, 310.5, 329.5, 
18:12:53.029607, 321.0, 330.0, 390.5, 335.0, 329.5, 333.0, 332.5, 332.0, 323.0, 320.5, 334.0, 318.5, 
18:12:53.037602, 321.0, 309.0, 215.5, 311.5, 315.5, 319.5, 325.0, 305.0, 313.5, 320.0, 296.0, 327.0, 
18:12:53.045596, 290.0, 311.0, 193.0, 314.0, 324.0, 326.0, 327.0, 320.0, 323.0, 632.0, 329.0, 320.0, 
18:12:53.053591, 329.0, 339.0, 491.5, 340.0, 335.5, 328.0, 333.0, 332.0, 323.0, 8.5, 328.5, 324.5, 
18:12:53.061585, 303.0, 301.0, 106.5, 300.0, 309.0, 323.0, 323.0, 302.5, 319.5, 634.0, 306.0, 328.0, 
18:12:53.069580, 332.5, 341.0, 532.5, 347.0, 337.5, 332.0, 333.5, 336.5, 321.5, 41.5, 333.0, 315.5, 
18:12:53.077575, 290.5, 303.0, 133.0, 300.0, 313.5, 318.0, 327.5, 307.5, 323.0, 633.5, 314.0, 325.5, 
18:12:53.085568, 345.0, 336.0, 498.5, 343.5, 334.0, 329.5, 332.0, 334.5, 320.5, 72.5, 335.0, 314.0, 
18:12:53.093564, 282.5, 305.5, 155.0, 301.5, 313.5, 321.0, 323.5, 305.0, 323.0, 634.5, 312.5, 328.0, 
18:12:53.101559, 358.0, 336.0, 484.0, 340.5, 334.5, 331.0, 333.0, 339.5, 325.0, 194.0, 342.0, 315.5, 
18:12:53.109553, 259.0, 305.0, 176.0, 306.5, 313.5, 319.5, 322.5, 305.5, 317.5, 634.5, 303.0, 329.0, 
