17:24:38.222109, 324.0, 331.0, 326.0, 329.0, 339.0, 331.0, 321.0, 321.0, 322.0, 634.0, 328.0, 326.0, 
17:24:38.230102, 320.0, 316.0, 279.0, 341.0, 335.0, 321.0, 316.0, 322.0, 320.0, 10.0, 365.0, 356.0, 
17:24:38.238100, 322.0, 335.0, 350.5, 312.5, 329.5, 330.5, 326.0, 317.0, 319.0, 635.5, 291.0, 300.5, 
17:24:38.246093, 322.0, 327.0, 316.0, 326.0, 333.0, 325.0, 322.0, 320.0, 322.0, 636.0, 329.0, 326.0, 
17:24:38.254130, 318.5, 320.5, 304.0, 329.5, 334.5, 326.5, 324.0, 325.5, 324.0, 320.5, 332.5, 325.5, 
17:24:38.262119, 324.0, 340.0, 355.0, 315.0, 330.0, 328.0, 322.0, 319.0, 321.0, 635.0, 298.0, 308.0, 
17:24:38.270113, 321.0, 327.0, 314.0, 330.0, 337.0, 326.0, 323.0, 320.0, 322.0, 635.0, 327.0, 324.0, 
17:24:38.278113, 321.0, 322.0, 292.5, 331.5, 332.0, 324.0, 323.5, 323.5, 323.5, 181.0, 334.0, 329.0, 
17:24:38.286066, 325.0, 342.0, 364.0, 316.0, 336.0, 331.0, 327.0, 327.0, 323.0, 637.0, 295.0, 310.0, 
17:24:38.294102, 322.0, 327.0, 331.0, 327.0, 329.0, 324.0, 321.0, 322.0, 326.0, 638.0, 333.0, 326.0, 
17:24:38.302056, 316.5, 317.5, 291.5, 331.5, 331.5, 322.0, 320.0, 319.0, 320.5, 31.0, 336.5, 329.5, 
17:24:38.310085, 328.0, 341.0, 363.0, 309.0, 324.0, 329.0, 323.0, 319.0, 319.0, 638.0, 297.0, 303.0, 
17:24:38.318085, 321.5, 320.0, 302.5, 335.0, 336.0, 321.0, 321.0, 327.5, 326.5, 321.0, 347.0, 346.0, 
17:24:38.326043, 323.0, 321.0, 297.0, 324.0, 336.0, 328.0, 324.0, 320.0, 323.0, 5.0, 317.0, 310.0, 
17:24:38.334034, 327.0, 342.0, 359.0, 305.0, 328.0, 334.0, 329.0, 318.0, 320.0, 636.0, 291.0, 298.0, 
17:24:38.342029, 323.5, 325.0, 308.5, 332.0, 332.5, 321.5, 320.0, 324.0, 321.0, 323.0, 346.0, 343.5, 
17:24:38.350022, 315.0, 317.0, 295.0, 329.0, 333.0, 326.0, 323.0, 321.0, 320.0, 9.0, 337.0, 320.0, 
17:24:38.358018, 325.5, 340.0, 347.5, 312.5, 331.0, 332.5, 325.0, 318.0, 320.0, 638.0, 303.0, 309.5, 
17:24:38.366016, 323.0, 322.0, 301.0, 333.0, 332.0, 319.0, 319.0, 322.0, 324.0, 7.0, 365.0, 360.0, 
17:24:38.374011, 320.5, 330.5, 337.0, 321.0, 330.5, 330.5, 324.5, 321.0, 322.5, 324.0, 306.0, 306.5, 
17:24:38.382002, 322.0, 333.0, 331.0, 323.0, 334.0, 327.0, 323.0, 319.0, 323.0, 635.0, 313.0, 319.0, 
17:24:38.390030, 322.0, 323.0, 305.0, 330.0, 331.0, 321.0, 319.0, 322.0, 320.0, 8.0, 361.0, 352.0, 
17:24:38.397993, 321.0, 329.0, 334.0, 318.0, 331.0, 328.5, 323.0, 317.5, 323.0, 321.5, 312.0, 309.5, 
17:24:38.406027, 325.0, 335.0, 330.0, 319.0, 329.0, 325.0, 322.0, 320.0, 320.0, 635.0, 312.0, 318.0, 
17:24:38.414024, 325.0, 328.0, 310.0, 328.0, 335.0, 326.0, 325.0, 327.0, 321.0, 272.0, 343.0, 341.0, 
17:24:38.421982, 323.0, 332.5, 338.5, 319.0, 329.5, 330.0, 324.0, 317.0, 320.5, 320.0, 310.0, 309.0, 
17:24:38.430016, 327.0, 342.0, 324.0, 316.0, 330.0, 326.0, 320.0, 320.0, 319.0, 634.0, 300.0, 316.0, 
17:24:38.437999, 318.5, 320.5, 303.5, 337.0, 333.5, 321.0, 319.5, 321.5, 323.0, 268.0, 351.5, 343.0, 
17:24:38.446009, 327.0, 339.0, 351.0, 297.0, 327.0, 337.0, 329.0, 318.0, 317.0, 634.0, 266.0, 260.0, 
17:24:38.453997, 323.0, 332.5, 330.5, 325.0, 328.5, 324.0, 322.0, 323.0, 320.0, 635.0, 323.0, 323.0, 
17:24:38.462002, 312.0, 306.0, 282.0, 347.0, 336.0, 319.0, 316.0, 320.0, 322.0, 6.0, 365.0, 358.0, 
17:24:38.469943, 326.0, 336.0, 358.5, 310.5, 332.0, 333.5, 327.5, 317.0, 319.5, 634.0, 284.0, 291.0, 
17:24:38.477972, 322.0, 326.0, 291.0, 326.0, 335.0, 324.0, 321.0, 324.0, 320.0, 635.0, 331.0, 333.0, 
17:24:38.485934, 317.0, 322.5, 323.0, 330.5, 336.0, 326.5, 321.5, 320.0, 321.0, 321.0, 325.5, 310.5, 
17:24:38.493931, 328.0, 335.0, 357.0, 313.0, 327.0, 326.0, 322.0, 317.0, 319.0, 634.0, 302.0, 307.0, 
17:24:38.501926, 327.0, 324.0, 319.0, 323.0, 329.0, 324.0, 321.0, 318.0, 320.0, 634.0, 328.0, 327.0, 
17:24:38.509917, 320.5, 322.0, 289.0, 331.0, 333.5, 322.5, 320.0, 323.0, 324.0, 321.5, 322.5, 325.0, 
17:24:38.517911, 324.0, 339.0, 363.0, 312.0, 332.0, 329.0, 324.0, 316.0, 318.0, 635.0, 301.0, 306.0, 
17:24:38.525949, 319.5, 319.5, 295.5, 337.5, 330.5, 313.5, 315.5, 325.0, 323.0, 320.5, 352.5, 361.5, 
17:24:38.533901, 318.0, 331.0, 329.0, 321.0, 336.0, 340.0, 331.0, 319.0, 323.0, 476.0, 286.0, 269.0, 
17:24:38.541895, 325.5, 338.5, 335.0, 317.0, 329.5, 331.5, 323.5, 317.0, 319.0, 634.5, 314.5, 310.0, 
17:24:38.549890, 321.0, 310.0, 276.0, 346.0, 331.0, 301.0, 309.0, 329.0, 323.0, 6.0, 374.0, 397.0, 
17:24:38.557919, 322.5, 334.0, 348.5, 315.0, 332.0, 338.0, 328.5, 318.0, 321.0, 353.0, 295.5, 292.5, 
17:24:38.565885, 323.0, 326.0, 331.0, 321.0, 338.0, 325.0, 326.0, 324.0, 323.0, 636.0, 320.0, 316.0, 
17:24:38.573874, 318.0, 314.0, 292.0, 347.0, 332.0, 300.0, 309.0, 337.0, 326.0, 7.0, 378.0, 388.0, 
17:24:38.581869, 321.5, 334.0, 336.0, 322.5, 327.0, 335.0, 326.5, 316.5, 324.0, 319.5, 300.5, 300.5, 
17:24:38.589904, 325.0, 334.0, 332.0, 332.0, 327.0, 322.0, 319.0, 319.0, 321.0, 634.0, 322.0, 323.0, 
17:24:38.597858, 317.0, 320.5, 301.5, 329.5, 333.0, 313.5, 315.5, 326.5, 325.0, 7.5, 347.0, 344.0, 
17:24:38.605895, 326.0, 343.0, 379.0, 313.0, 329.0, 357.0, 340.0, 313.0, 319.0, 637.0, 278.0, 288.0, 
17:24:38.613851, 321.0, 325.5, 311.5, 326.5, 333.5, 316.5, 314.0, 322.5, 322.0, 320.0, 348.0, 341.0, 
17:24:38.621842, 320.0, 318.0, 292.0, 336.0, 335.0, 317.0, 313.0, 322.0, 324.0, 6.0, 331.0, 332.0, 
17:24:38.629856, 326.0, 338.0, 346.0, 305.0, 328.0, 352.0, 347.0, 311.0, 315.0, 634.0, 265.0, 276.0, 
17:24:38.637832, 323.0, 329.0, 323.5, 328.0, 335.5, 324.0, 319.0, 324.5, 323.0, 321.0, 340.0, 335.0, 
17:24:38.645861, 318.0, 322.0, 277.0, 340.0, 336.0, 317.0, 306.0, 324.0, 324.0, 6.0, 343.0, 339.0, 
17:24:38.653825, 325.0, 335.0, 368.5, 314.0, 331.0, 339.0, 339.5, 315.5, 319.0, 634.0, 296.5, 294.5, 
17:24:38.661815, 325.0, 332.0, 289.0, 324.0, 326.0, 320.0, 314.0, 321.0, 324.0, 355.0, 342.0, 339.0, 
17:24:38.669811, 316.0, 318.0, 272.0, 336.0, 336.0, 312.0, 300.0, 328.0, 329.0, 5.0, 350.0, 343.0, 
17:24:38.677839, 325.5, 338.5, 363.5, 316.5, 332.0, 341.5, 350.0, 318.0, 321.0, 634.5, 287.0, 299.0, 
17:24:38.685853, 324.0, 327.0, 312.0, 330.0, 334.0, 323.0, 316.0, 320.0, 318.0, 634.0, 340.0, 332.0, 
17:24:38.693835, 319.5, 324.0, 318.0, 324.5, 330.0, 333.5, 334.0, 319.0, 321.0, 322.5, 310.0, 312.5, 
17:24:38.701794, 324.0, 337.0, 331.0, 323.0, 327.0, 332.0, 324.0, 317.0, 319.0, 634.0, 307.0, 313.0, 
17:24:38.709818, 321.0, 325.0, 313.0, 324.0, 331.0, 324.0, 313.0, 320.0, 321.0, 635.0, 333.0, 330.0, 
17:24:38.717784, 318.5, 324.5, 323.5, 324.0, 331.5, 329.0, 323.0, 318.5, 321.5, 319.5, 313.5, 311.0, 
17:24:38.725773, 324.0, 346.0, 330.0, 316.0, 329.0, 336.0, 323.0, 320.0, 321.0, 639.0, 301.0, 309.0, 
17:24:38.733778, 321.0, 324.0, 312.0, 330.0, 335.0, 319.0, 318.0, 322.0, 322.0, 636.0, 339.0, 329.0, 
17:24:38.741762, 320.0, 315.0, 251.0, 349.0, 339.0, 256.0, 303.0, 332.0, 326.0, 6.0, 382.0, 387.0, 
17:24:38.749757, 327.0, 330.0, 361.0, 308.0, 329.0, 382.0, 337.0, 305.0, 316.0, 634.0, 263.0, 238.0, 
17:24:38.757791, 324.0, 334.5, 335.0, 321.5, 331.5, 330.0, 324.0, 320.5, 320.5, 634.5, 314.5, 316.0, 
17:24:38.765762, 316.0, 311.0, 255.0, 349.0, 339.0, 271.0, 308.0, 333.0, 328.0, 7.0, 388.0, 407.0, 
17:24:38.773747, 327.0, 335.0, 351.0, 316.5, 330.5, 350.0, 329.5, 315.5, 320.5, 635.0, 286.0, 276.5, 
17:24:38.781741, 324.0, 330.0, 327.0, 324.0, 332.0, 322.0, 321.0, 321.0, 321.0, 639.0, 326.0, 326.0, 
17:24:38.789729, 320.0, 308.0, 250.0, 343.0, 336.0, 291.0, 312.0, 332.0, 325.0, 6.0, 385.0, 401.0, 
17:24:38.797723, 321.0, 332.5, 352.0, 313.0, 327.5, 337.0, 326.5, 319.0, 321.0, 470.5, 292.5, 286.5, 
17:24:38.805753, 321.0, 329.0, 313.0, 325.0, 334.0, 326.0, 320.0, 319.0, 325.0, 637.0, 324.0, 327.0, 
17:24:38.813719, 318.0, 313.0, 277.0, 346.0, 336.0, 306.0, 316.0, 328.0, 325.0, 6.0, 382.0, 387.0, 
17:24:38.821721, 321.0, 333.0, 337.5, 314.5, 333.5, 332.0, 324.0, 318.0, 319.5, 319.0, 293.5, 294.5, 
17:24:38.829710, 322.0, 336.0, 343.0, 331.0, 331.0, 322.0, 319.0, 323.0, 321.0, 635.0, 327.0, 324.0, 
17:24:38.837698, 318.0, 317.0, 302.5, 338.5, 336.5, 321.5, 322.0, 320.5, 321.0, 5.0, 350.0, 344.5, 
17:24:38.845693, 326.0, 344.0, 368.0, 302.0, 330.0, 339.0, 334.0, 314.0, 318.0, 633.0, 277.0, 293.0, 
17:24:38.853689, 323.0, 329.0, 315.0, 328.5, 331.5, 321.5, 319.5, 321.0, 322.0, 320.0, 348.0, 343.5, 
17:24:38.861685, 315.0, 318.0, 292.0, 331.0, 331.0, 324.0, 321.0, 322.0, 321.0, 7.0, 335.0, 325.0, 
17:24:38.869714, 323.5, 338.0, 356.5, 311.5, 328.5, 329.5, 325.5, 318.5, 320.5, 634.0, 293.5, 305.5, 
17:24:38.877671, 325.0, 325.0, 303.0, 331.0, 334.0, 321.0, 320.0, 319.0, 324.0, 5.0, 356.0, 347.0, 
17:24:38.885707, 325.0, 330.5, 333.0, 320.0, 332.0, 328.5, 324.0, 318.5, 321.0, 323.0, 311.0, 311.5, 
17:24:38.893664, 322.0, 331.0, 331.0, 320.0, 332.0, 324.0, 322.0, 318.0, 321.0, 634.0, 313.0, 318.0, 
17:24:38.901694, 319.5, 324.0, 297.0, 334.0, 339.0, 327.5, 320.5, 321.5, 322.0, 98.0, 350.0, 336.5, 
17:24:38.909651, 330.0, 341.0, 364.0, 307.0, 335.0, 336.0, 328.0, 318.0, 321.0, 634.0, 283.0, 292.0, 
17:24:38.917645, 320.5, 333.0, 321.5, 321.0, 329.5, 326.0, 320.0, 320.5, 318.5, 500.5, 322.0, 328.5, 
17:24:38.925639, 315.0, 314.0, 287.0, 336.0, 333.0, 321.0, 318.0, 320.0, 323.0, 6.0, 346.0, 337.0, 
17:24:38.933633, 322.5, 336.5, 357.0, 318.0, 334.5, 328.5, 323.0, 321.5, 323.5, 633.5, 295.0, 306.5, 
17:24:38.941627, 322.5, 324.5, 299.5, 331.0, 336.5, 323.5, 321.5, 320.0, 320.5, 259.5, 346.0, 333.0, 
17:24:38.949622, 326.0, 343.0, 366.0, 315.0, 328.0, 333.0, 329.0, 321.0, 320.0, 634.0, 292.0, 298.0, 
17:24:38.957657, 321.5, 328.5, 316.0, 323.0, 333.5, 325.5, 321.0, 322.5, 323.5, 621.0, 316.5, 319.0, 
17:24:38.965644, 316.0, 315.0, 293.0, 334.0, 334.0, 322.0, 321.0, 323.0, 327.0, 8.0, 357.0, 337.0, 
17:24:38.973647, 321.5, 332.5, 345.0, 315.0, 331.0, 327.0, 323.0, 318.0, 321.5, 634.5, 300.0, 310.0, 
17:24:38.981611, 320.0, 323.0, 303.0, 333.0, 335.0, 325.0, 321.5, 322.0, 319.0, 301.0, 338.0, 332.5, 
17:24:38.989599, 324.0, 336.0, 323.0, 313.0, 329.0, 330.0, 330.0, 322.0, 326.0, 558.0, 301.0, 297.0, 
17:24:38.997630, 323.0, 333.0, 343.5, 322.0, 331.5, 328.0, 324.5, 319.5, 319.5, 626.5, 319.0, 320.0, 
17:24:39.005625, 317.0, 320.0, 305.5, 326.5, 334.0, 327.0, 323.0, 323.5, 321.5, 127.5, 330.5, 324.5, 
17:24:39.013583, 324.0, 334.0, 354.0, 314.0, 327.0, 328.0, 325.0, 324.0, 320.0, 634.0, 300.0, 312.0, 
17:24:39.021574, 318.5, 320.0, 309.0, 326.5, 329.0, 321.5, 321.0, 322.5, 326.5, 320.0, 342.5, 333.0, 
17:24:39.029569, 318.0, 323.0, 323.0, 322.0, 333.0, 329.0, 324.0, 319.0, 321.0, 35.0, 318.0, 315.0, 
17:24:39.037597, 322.5, 332.0, 327.0, 317.5, 328.5, 326.0, 322.5, 320.0, 321.0, 634.0, 309.0, 316.0, 
17:24:39.045598, 319.0, 320.5, 300.5, 327.5, 329.0, 324.0, 322.0, 320.0, 319.5, 6.0, 338.0, 329.5, 
17:24:39.053587, 324.0, 347.0, 358.0, 318.0, 326.0, 327.0, 329.0, 318.0, 322.0, 633.0, 294.0, 308.0, 
17:24:39.061547, 320.0, 324.0, 316.0, 327.0, 335.5, 324.5, 322.0, 323.5, 321.5, 319.5, 339.0, 332.5, 
17:24:39.069594, 321.6666666666667, 330.6666666666667, 326.3333333333333, 320.6666666666667, 330.0, 326.6666666666667, 323.3333333333333, 319.0, 320.6666666666667, 425.0, 310.3333333333333, 314.6666666666667, 
17:24:39.077569, 321.0, 326.6666666666667, 318.6666666666667, 323.3333333333333, 332.3333333333333, 326.6666666666667, 322.6666666666667, 318.3333333333333, 321.0, 215.66666666666666, 324.6666666666667, 320.0, 
17:24:39.085561, 319.3333333333333, 323.6666666666667, 314.0, 326.6666666666667, 330.6666666666667, 324.0, 320.6666666666667, 320.6666666666667, 321.0, 216.66666666666666, 339.3333333333333, 332.0, 
17:24:39.093527, 325.5, 336.0, 345.5, 313.5, 332.5, 327.0, 323.0, 317.0, 320.0, 634.5, 299.5, 307.0, 
17:24:39.101525, 321.0, 326.6666666666667, 313.3333333333333, 324.0, 328.6666666666667, 325.3333333333333, 321.3333333333333, 321.0, 320.3333333333333, 269.0, 322.0, 321.6666666666667, 
17:24:39.109541, 319.0, 324.3333333333333, 302.3333333333333, 324.6666666666667, 330.0, 322.6666666666667, 320.3333333333333, 320.3333333333333, 323.0, 337.0, 335.0, 325.3333333333333, 
17:24:39.117545, 327.0, 342.0, 352.5, 314.5, 333.0, 333.5, 323.5, 320.0, 322.0, 634.0, 293.5, 305.5, 
17:24:39.125509, 324.0, 325.3333333333333, 312.6666666666667, 326.3333333333333, 336.0, 327.6666666666667, 323.0, 319.0, 321.0, 393.6666666666667, 323.0, 316.6666666666667, 
17:24:39.133539, 325.5, 334.5, 327.5, 319.0, 327.0, 325.5, 325.0, 319.5, 320.0, 634.5, 316.5, 324.0, 
17:24:39.141499, 319.6666666666667, 325.3333333333333, 319.3333333333333, 323.0, 331.6666666666667, 327.0, 322.0, 319.6666666666667, 321.0, 425.0, 315.0, 315.6666666666667, 
17:24:39.149526, 320.0, 322.0, 298.5, 335.5, 334.0, 321.5, 318.5, 321.5, 321.0, 320.5, 352.0, 340.0, 
17:24:39.157500, 324.0, 334.0, 340.3333333333333, 319.3333333333333, 331.3333333333333, 328.0, 323.3333333333333, 318.3333333333333, 320.0, 634.3333333333334, 304.6666666666667, 307.3333333333333, 
17:24:39.165481, 316.5, 316.5, 307.5, 333.0, 338.0, 326.5, 322.0, 324.5, 326.0, 156.5, 336.0, 328.5, 
17:24:39.173477, 320.3333333333333, 327.6666666666667, 317.6666666666667, 326.6666666666667, 331.0, 322.3333333333333, 319.6666666666667, 320.6666666666667, 321.6666666666667, 425.0, 329.3333333333333, 331.6666666666667, 
17:24:39.181468, 321.5, 334.5, 344.5, 316.5, 331.5, 331.0, 324.0, 317.5, 319.0, 319.5, 300.0, 303.0, 
17:24:39.189488, 319.3333333333333, 322.0, 300.0, 330.6666666666667, 334.6666666666667, 323.6666666666667, 321.6666666666667, 323.3333333333333, 323.3333333333333, 216.33333333333334, 335.3333333333333, 329.3333333333333, 
17:24:39.197456, 324.0, 337.0, 359.0, 313.0, 328.0, 328.0, 322.5, 317.0, 320.5, 634.5, 303.0, 310.5, 
17:24:39.205453, 317.5, 318.0, 295.0, 333.5, 331.0, 322.5, 320.5, 322.0, 322.0, 5.0, 346.0, 343.5, 
17:24:39.213480, 324.6666666666667, 335.6666666666667, 334.6666666666667, 320.0, 332.0, 326.3333333333333, 323.0, 320.0, 322.0, 426.3333333333333, 319.3333333333333, 323.3333333333333, 
17:24:39.221476, 322.6666666666667, 332.6666666666667, 328.3333333333333, 318.6666666666667, 332.0, 328.6666666666667, 323.6666666666667, 318.6666666666667, 321.0, 424.6666666666667, 313.3333333333333, 312.0, 
17:24:39.229436, 319.5, 321.0, 306.0, 333.0, 334.5, 322.5, 320.0, 322.0, 322.0, 11.0, 345.0, 342.5, 
17:24:39.242792, 323.0, 328.0, 338.0, 323.0, 331.0, 326.0, 325.0, 326.0, 323.0, 635.0, 329.0, 320.0, 
17:24:39.244903, 317.0, 301.0, 274.0, 353.0, 336.0, 318.0, 319.0, 323.0, 321.0, 6.0, 363.0, 352.0, 
17:24:39.247961, 323.0, 331.0, 341.0, 306.0, 330.0, 334.0, 326.0, 317.0, 320.0, 634.0, 285.0, 290.0, 
17:24:39.251052, 323.0, 345.0, 350.0, 312.0, 332.0, 327.0, 322.0, 317.0, 319.0, 634.0, 302.0, 316.0, 
17:24:39.254294, 328.0, 332.0, 320.0, 324.0, 335.0, 328.0, 324.0, 322.0, 320.0, 633.0, 326.0, 323.0, 
17:24:39.257338, 316.0, 301.0, 283.0, 355.0, 338.0, 317.0, 315.0, 322.0, 322.0, 5.0, 369.0, 353.0, 
17:24:39.259375, 318.0, 330.0, 344.0, 312.0, 328.0, 332.0, 325.0, 317.0, 320.0, 638.0, 291.0, 294.0, 
17:24:39.261402, 330.0, 346.0, 337.0, 306.0, 336.0, 333.0, 321.0, 316.0, 320.0, 636.0, 303.0, 308.0, 
17:24:39.263434, 321.0, 330.0, 319.0, 324.0, 335.0, 325.0, 321.0, 322.0, 320.0, 635.0, 322.0, 323.0, 
17:24:39.266487, 315.0, 301.0, 289.0, 350.0, 331.0, 315.0, 316.0, 321.0, 322.0, 7.0, 378.0, 358.0, 
17:24:39.268532, 319.0, 320.0, 334.0, 318.0, 329.0, 330.0, 325.0, 317.0, 322.0, 374.0, 295.0, 298.0, 
17:24:39.270663, 324.0, 349.0, 370.0, 305.0, 328.0, 327.0, 323.0, 316.0, 318.0, 634.0, 294.0, 306.0, 
17:24:39.275404, 321.0, 330.0, 306.0, 321.0, 329.0, 324.0, 320.0, 319.0, 320.0, 634.0, 323.0, 323.0, 
17:24:39.277526, 317.0, 303.0, 283.0, 355.0, 330.0, 314.0, 315.0, 322.0, 322.0, 6.0, 372.0, 358.0, 
17:24:39.279651, 323.0, 323.0, 325.0, 322.0, 327.0, 327.0, 323.0, 324.0, 323.0, 54.0, 306.0, 303.0, 
17:24:39.281687, 325.0, 351.0, 358.0, 303.0, 334.0, 330.0, 325.0, 318.0, 319.0, 634.0, 295.0, 303.0, 
17:24:39.283716, 321.0, 331.0, 321.0, 324.0, 333.0, 326.0, 325.0, 326.0, 322.0, 633.0, 323.0, 328.0, 
17:24:39.286844, 317.0, 312.0, 254.0, 345.0, 330.0, 315.0, 317.0, 323.0, 320.0, 6.0, 370.0, 361.0, 
17:24:39.288894, 322.0, 320.0, 331.0, 326.0, 333.0, 331.0, 328.0, 319.0, 320.0, 5.0, 316.0, 309.0, 
17:24:39.290921, 325.0, 350.0, 355.0, 299.0, 322.0, 330.0, 324.0, 317.0, 319.0, 633.0, 289.0, 302.0, 
17:24:39.292974, 324.0, 336.0, 340.0, 323.0, 340.0, 330.0, 320.0, 325.0, 321.0, 634.0, 321.0, 322.0, 
17:24:39.296124, 320.0, 313.0, 291.0, 338.0, 330.0, 315.0, 317.0, 322.0, 324.0, 7.0, 372.0, 349.0, 
17:24:39.298189, 317.0, 309.0, 287.0, 332.0, 331.0, 323.0, 322.0, 321.0, 323.0, 7.0, 317.0, 321.0, 
17:24:39.301239, 326.0, 352.0, 383.0, 294.0, 331.0, 332.0, 325.0, 314.0, 317.0, 634.0, 287.0, 298.0, 
17:24:39.303267, 321.0, 334.0, 326.0, 322.0, 333.0, 327.0, 321.0, 320.0, 320.0, 635.0, 320.0, 322.0, 
17:24:39.305301, 320.0, 319.0, 298.0, 334.0, 332.0, 319.0, 319.0, 321.0, 325.0, 6.0, 364.0, 352.0, 
17:24:39.306358, 321.5, 329.0, 330.5, 318.0, 332.5, 328.5, 325.0, 321.0, 322.0, 320.5, 306.0, 310.5, 
17:24:39.311397, 321.3333333333333, 322.0, 305.6666666666667, 332.6666666666667, 336.3333333333333, 324.6666666666667, 321.6666666666667, 323.3333333333333, 323.3333333333333, 218.66666666666666, 339.3333333333333, 332.3333333333333, 
17:24:39.319398, 322.5, 329.5, 330.25, 320.5, 330.25, 326.5, 320.75, 319.75, 320.75, 392.0, 321.0, 320.5, 
17:24:39.327393, 324.6666666666667, 337.0, 327.3333333333333, 312.6666666666667, 328.6666666666667, 328.6666666666667, 323.6666666666667, 319.0, 319.6666666666667, 580.0, 309.0, 314.0, 
17:24:39.335389, 319.75, 327.0, 324.5, 323.0, 327.75, 325.25, 323.5, 320.75, 320.75, 477.0, 316.25, 319.25, 
17:24:39.343381, 320.0, 328.0, 323.3333333333333, 320.6666666666667, 332.0, 327.0, 323.3333333333333, 320.3333333333333, 322.0, 426.3333333333333, 313.0, 317.0, 
17:24:39.351377, 320.75, 327.0, 315.0, 325.75, 332.75, 327.25, 321.5, 319.0, 323.0, 478.5, 321.75, 318.75, 
17:24:39.359371, 320.6666666666667, 318.0, 308.3333333333333, 330.3333333333333, 332.0, 325.6666666666667, 324.6666666666667, 322.0, 322.0, 425.6666666666667, 328.6666666666667, 322.6666666666667, 
17:24:39.367365, 319.0, 326.0, 317.0, 325.5, 330.75, 323.75, 320.0, 320.5, 320.75, 446.5, 322.5, 322.0, 
17:24:39.375362, 320.6666666666667, 329.3333333333333, 313.6666666666667, 330.0, 331.6666666666667, 323.3333333333333, 322.3333333333333, 323.0, 323.6666666666667, 425.6666666666667, 334.6666666666667, 329.3333333333333, 
17:24:39.383357, 320.5, 328.0, 327.5, 325.5, 330.75, 325.5, 322.75, 321.75, 321.25, 356.0, 324.25, 323.0, 
17:24:39.391378, 321.0, 328.0, 322.75, 322.5, 330.0, 325.75, 323.75, 320.5, 321.0, 320.0, 322.5, 322.25, 
17:24:39.399344, 320.6666666666667, 332.3333333333333, 337.3333333333333, 316.6666666666667, 329.6666666666667, 327.6666666666667, 322.6666666666667, 318.0, 320.6666666666667, 425.3333333333333, 309.6666666666667, 310.6666666666667, 
17:24:39.407339, 323.0, 328.75, 329.75, 322.75, 334.25, 325.25, 321.25, 321.75, 322.0, 321.25, 324.5, 324.75, 
17:24:39.415334, 324.0, 328.75, 329.25, 320.25, 331.0, 327.25, 322.5, 321.5, 320.75, 319.75, 320.0, 320.5, 
17:24:39.423360, 321.25, 328.5, 326.0, 322.75, 331.75, 327.25, 324.75, 320.0, 319.75, 396.75, 318.0, 319.75, 
17:24:39.431321, 322.0, 326.75, 322.75, 321.0, 329.75, 325.5, 321.75, 320.5, 322.0, 454.25, 319.25, 318.5, 
17:24:39.439318, 322.0, 329.75, 321.25, 325.0, 330.75, 326.5, 321.75, 318.0, 323.5, 476.75, 316.5, 315.75, 
17:24:39.447316, 322.0, 321.6666666666667, 310.6666666666667, 332.3333333333333, 330.3333333333333, 325.3333333333333, 322.0, 320.0, 322.0, 427.0, 329.3333333333333, 326.0, 
17:24:39.455308, 321.25, 326.0, 319.25, 328.0, 333.0, 326.5, 321.0, 320.75, 322.5, 478.75, 325.0, 321.25, 
17:24:39.463344, 321.25, 329.0, 321.25, 326.5, 334.25, 324.25, 321.0, 321.25, 324.0, 446.75, 325.5, 322.0, 
17:24:39.471331, 322.0, 326.5, 319.5, 326.0, 330.75, 323.5, 320.25, 318.5, 321.25, 344.0, 324.0, 323.25, 
17:24:39.479319, 321.6666666666667, 331.6666666666667, 317.3333333333333, 324.3333333333333, 335.3333333333333, 325.0, 322.3333333333333, 322.0, 321.3333333333333, 426.3333333333333, 328.6666666666667, 332.3333333333333, 
17:24:39.487286, 322.0, 328.0, 327.5, 321.5, 330.75, 324.0, 321.25, 320.5, 321.25, 320.0, 324.75, 319.0, 
17:24:39.495280, 323.75, 331.5, 325.5, 324.75, 336.5, 329.5, 324.0, 322.75, 323.0, 322.25, 326.75, 325.0, 
17:24:39.503275, 321.5, 328.75, 319.5, 321.5, 332.75, 328.0, 323.75, 320.75, 321.0, 320.5, 319.0, 321.0, 
17:24:39.511297, 322.0, 327.5, 336.25, 320.5, 329.75, 327.0, 322.5, 319.25, 321.0, 395.75, 316.5, 320.0, 
17:24:39.519293, 322.0, 332.3333333333333, 333.6666666666667, 322.3333333333333, 332.3333333333333, 327.6666666666667, 322.3333333333333, 322.3333333333333, 321.6666666666667, 425.0, 310.0, 315.6666666666667, 
17:24:39.527259, 321.0, 326.5, 321.0, 323.75, 330.25, 325.75, 322.25, 320.75, 323.5, 453.5, 318.0, 317.25, 
17:24:39.535253, 322.75, 332.25, 317.25, 322.0, 329.5, 325.25, 322.5, 319.75, 320.5, 477.5, 318.25, 318.5, 
17:24:39.543276, 321.6666666666667, 321.0, 310.3333333333333, 333.0, 334.6666666666667, 327.6666666666667, 320.0, 321.3333333333333, 325.3333333333333, 428.0, 327.0, 324.3333333333333, 
17:24:39.551271, 322.0, 328.0, 314.75, 324.5, 331.25, 324.75, 321.5, 320.0, 321.0, 478.75, 323.25, 320.75, 
17:24:39.559269, 320.75, 327.0, 313.0, 326.0, 334.0, 326.0, 324.25, 322.0, 322.0, 429.25, 322.75, 323.25, 
17:24:39.567261, 322.0, 325.75, 315.75, 325.25, 332.75, 325.0, 323.75, 323.25, 323.5, 345.75, 324.75, 325.75, 
17:24:39.575226, 321.0, 327.25, 319.0, 326.0, 328.5, 323.75, 321.0, 319.75, 321.75, 320.25, 323.0, 324.25, 
17:24:39.583251, 321.0, 328.0, 333.0, 324.5, 330.0, 324.0, 321.75, 321.25, 323.0, 320.75, 327.0, 324.75, 
17:24:39.591215, 321.5, 329.25, 317.5, 322.0, 330.25, 326.0, 324.0, 322.25, 322.5, 322.0, 326.25, 325.75, 
17:24:39.599211, 325.0, 338.3333333333333, 325.0, 318.6666666666667, 328.0, 328.6666666666667, 324.3333333333333, 317.3333333333333, 319.0, 425.3333333333333, 313.6666666666667, 318.6666666666667, 
17:24:39.607205, 322.5, 331.25, 327.0, 323.25, 332.25, 326.25, 322.5, 321.25, 322.75, 368.0, 320.75, 319.5, 
17:24:39.615200, 320.6666666666667, 328.6666666666667, 331.0, 320.3333333333333, 333.0, 328.3333333333333, 323.3333333333333, 319.6666666666667, 319.6666666666667, 426.3333333333333, 310.3333333333333, 314.0, 
17:24:39.623195, 321.6666666666667, 327.0, 324.3333333333333, 326.3333333333333, 334.6666666666667, 329.0, 325.3333333333333, 322.0, 325.0, 335.0, 323.3333333333333, 320.3333333333333, 
17:24:39.631190, 319.6666666666667, 322.6666666666667, 317.0, 327.0, 331.3333333333333, 322.6666666666667, 319.6666666666667, 322.0, 323.3333333333333, 402.0, 331.3333333333333, 331.0, 
17:24:39.639184, 324.6666666666667, 332.0, 339.6666666666667, 316.3333333333333, 330.3333333333333, 328.6666666666667, 324.3333333333333, 320.0, 321.3333333333333, 635.0, 308.6666666666667, 309.6666666666667, 
17:24:39.647178, 322.6666666666667, 329.6666666666667, 319.3333333333333, 324.6666666666667, 331.3333333333333, 327.3333333333333, 322.6666666666667, 319.6666666666667, 321.6666666666667, 426.6666666666667, 315.6666666666667, 318.0, 
17:24:39.655173, 321.0, 324.6666666666667, 308.0, 327.6666666666667, 332.6666666666667, 325.6666666666667, 320.6666666666667, 320.3333333333333, 323.0, 419.3333333333333, 333.0, 323.3333333333333, 
17:24:39.663205, 322.6666666666667, 331.0, 323.6666666666667, 327.3333333333333, 329.3333333333333, 324.6666666666667, 322.6666666666667, 322.6666666666667, 321.6666666666667, 425.0, 330.3333333333333, 329.0, 
17:24:39.671164, 320.25, 328.0, 316.0, 323.5, 330.25, 324.75, 321.75, 320.25, 320.5, 387.25, 322.5, 323.75, 
17:24:39.679159, 321.3333333333333, 331.0, 328.0, 322.3333333333333, 330.3333333333333, 328.3333333333333, 321.6666666666667, 319.3333333333333, 323.0, 441.6666666666667, 308.0, 313.3333333333333, 
17:24:39.687153, 320.75, 326.75, 326.25, 326.0, 332.25, 325.75, 322.25, 319.75, 320.75, 320.5, 326.5, 324.75, 
17:24:39.695147, 323.0, 328.3333333333333, 325.3333333333333, 325.6666666666667, 330.3333333333333, 325.0, 321.6666666666667, 320.3333333333333, 323.3333333333333, 215.0, 323.6666666666667, 324.6666666666667, 
17:24:39.703143, 319.6666666666667, 323.3333333333333, 313.6666666666667, 326.0, 333.3333333333333, 324.3333333333333, 321.3333333333333, 321.3333333333333, 320.3333333333333, 215.0, 332.0, 329.3333333333333, 
17:24:39.711141, 323.6666666666667, 331.3333333333333, 332.3333333333333, 319.6666666666667, 333.0, 326.6666666666667, 322.3333333333333, 318.6666666666667, 321.0, 425.3333333333333, 317.3333333333333, 319.0, 
17:24:39.719133, 321.5, 329.0, 328.75, 324.25, 333.0, 327.25, 322.75, 320.25, 322.0, 361.25, 319.0, 318.0, 
17:24:39.727130, 320.6666666666667, 327.6666666666667, 327.0, 323.6666666666667, 334.3333333333333, 327.0, 322.6666666666667, 321.6666666666667, 321.0, 425.0, 317.3333333333333, 313.3333333333333, 
17:24:39.735122, 322.3333333333333, 329.0, 316.6666666666667, 323.3333333333333, 331.0, 325.0, 322.3333333333333, 320.6666666666667, 321.6666666666667, 325.6666666666667, 325.6666666666667, 321.3333333333333, 
17:24:39.743117, 321.25, 328.5, 323.5, 326.25, 333.75, 327.5, 324.0, 322.5, 321.0, 431.5, 323.0, 320.0, 
17:24:39.751110, 322.0, 324.6666666666667, 301.3333333333333, 323.6666666666667, 330.3333333333333, 323.6666666666667, 320.3333333333333, 320.3333333333333, 321.3333333333333, 365.6666666666667, 325.0, 326.6666666666667, 
17:24:39.759106, 322.0, 331.0, 333.3333333333333, 321.3333333333333, 331.6666666666667, 327.3333333333333, 325.3333333333333, 320.6666666666667, 322.0, 588.0, 311.6666666666667, 314.0, 
17:24:39.767100, 321.0, 325.75, 315.75, 321.5, 331.0, 325.0, 322.0, 320.75, 322.0, 393.0, 323.25, 314.5, 
17:24:39.775096, 320.0, 327.0, 314.3333333333333, 323.0, 334.6666666666667, 325.3333333333333, 321.3333333333333, 320.6666666666667, 325.0, 272.6666666666667, 322.0, 321.3333333333333, 
17:24:39.783094, 320.3333333333333, 324.0, 319.3333333333333, 327.3333333333333, 331.0, 325.0, 322.6666666666667, 320.3333333333333, 323.3333333333333, 204.66666666666666, 330.0, 325.3333333333333, 
17:24:39.791084, 321.75, 328.25, 324.5, 323.5, 330.5, 327.5, 325.0, 319.75, 322.25, 319.75, 323.25, 322.5, 
17:24:39.799078, 323.0, 328.0, 319.3333333333333, 322.0, 331.3333333333333, 325.6666666666667, 321.0, 318.3333333333333, 318.6666666666667, 425.3333333333333, 317.3333333333333, 319.3333333333333, 
17:24:39.807101, 323.6666666666667, 332.3333333333333, 331.3333333333333, 322.0, 334.0, 326.0, 322.3333333333333, 319.0, 321.0, 425.3333333333333, 318.6666666666667, 317.6666666666667, 
17:24:39.815067, 322.0, 328.0, 318.3333333333333, 324.6666666666667, 332.0, 328.6666666666667, 323.3333333333333, 321.6666666666667, 322.0, 215.33333333333334, 323.3333333333333, 322.3333333333333, 
17:24:39.823062, 321.0, 327.0, 317.0, 323.0, 328.3333333333333, 325.6666666666667, 323.0, 320.3333333333333, 320.6666666666667, 237.33333333333334, 328.3333333333333, 326.3333333333333, 
17:24:39.831056, 321.5, 330.75, 328.5, 323.25, 329.0, 325.0, 321.25, 318.5, 320.75, 361.0, 323.5, 321.25, 
17:24:39.839080, 324.0, 329.0, 333.3333333333333, 318.6666666666667, 329.6666666666667, 326.6666666666667, 322.0, 320.6666666666667, 323.0, 516.3333333333334, 315.0, 318.3333333333333, 
17:24:39.847046, 323.5, 330.75, 328.0, 324.75, 330.25, 325.75, 324.0, 322.5, 322.75, 400.25, 319.25, 318.5, 
17:24:39.855040, 320.3333333333333, 329.3333333333333, 322.0, 321.3333333333333, 331.0, 324.6666666666667, 321.6666666666667, 321.6666666666667, 320.3333333333333, 415.0, 318.6666666666667, 318.0, 
17:24:39.863064, 319.3333333333333, 322.3333333333333, 315.3333333333333, 322.6666666666667, 329.6666666666667, 326.6666666666667, 323.6666666666667, 321.6666666666667, 323.0, 284.0, 327.0, 323.3333333333333, 
17:24:39.871070, 320.5, 327.5, 321.5, 323.75, 331.5, 325.0, 321.25, 320.25, 321.25, 343.25, 323.0, 323.5, 
17:24:39.879024, 320.3333333333333, 326.6666666666667, 333.6666666666667, 325.6666666666667, 330.3333333333333, 323.3333333333333, 320.6666666666667, 320.0, 324.3333333333333, 398.6666666666667, 327.3333333333333, 324.3333333333333, 
17:24:39.887019, 323.3333333333333, 329.0, 321.3333333333333, 324.3333333333333, 334.6666666666667, 326.0, 322.0, 319.6666666666667, 322.3333333333333, 449.6666666666667, 311.3333333333333, 316.3333333333333, 
17:24:39.895013, 321.3333333333333, 329.3333333333333, 324.3333333333333, 321.6666666666667, 329.3333333333333, 326.3333333333333, 324.3333333333333, 321.3333333333333, 322.0, 215.33333333333334, 326.3333333333333, 324.3333333333333, 
17:24:39.903010, 323.25, 331.0, 320.25, 322.25, 330.25, 325.0, 320.25, 320.25, 322.5, 321.75, 319.0, 323.25, 
17:24:39.911005, 320.0, 326.0, 315.0, 325.6666666666667, 331.0, 324.3333333333333, 321.3333333333333, 317.3333333333333, 321.0, 215.0, 331.0, 328.0, 
17:24:39.918999, 322.0, 333.0, 329.0, 325.5, 335.75, 325.25, 321.75, 322.25, 322.25, 320.0, 321.0, 321.5, 
17:24:39.926997, 326.0, 332.6666666666667, 320.6666666666667, 319.3333333333333, 330.3333333333333, 329.3333333333333, 323.3333333333333, 319.0, 320.3333333333333, 454.0, 317.0, 317.0, 
17:24:39.934988, 322.5, 327.5, 325.0, 322.25, 331.0, 328.75, 323.0, 321.0, 322.0, 367.25, 322.75, 321.5, 
17:24:39.942986, 320.6666666666667, 327.6666666666667, 330.0, 321.0, 329.0, 325.6666666666667, 321.6666666666667, 319.3333333333333, 322.0, 426.0, 315.3333333333333, 316.6666666666667, 
17:24:39.950979, 322.5, 328.0, 320.0, 323.75, 331.75, 326.75, 323.5, 320.25, 320.75, 398.75, 318.5, 322.25, 
17:24:39.958975, 321.25, 330.25, 320.0, 323.0, 331.0, 325.75, 322.25, 320.0, 321.75, 405.5, 322.25, 316.5, 
17:24:39.966971, 319.3333333333333, 324.0, 317.3333333333333, 327.0, 333.0, 326.0, 323.0, 323.0, 323.0, 308.6666666666667, 331.0, 326.0, 
17:24:39.974960, 321.6666666666667, 330.3333333333333, 329.0, 325.0, 329.3333333333333, 324.0, 324.6666666666667, 321.6666666666667, 321.6666666666667, 394.6666666666667, 323.6666666666667, 324.0, 
17:24:39.982957, 321.5, 330.0, 314.5, 326.5, 333.5, 327.0, 321.5, 318.75, 319.75, 366.25, 317.25, 320.75, 
17:24:39.990952, 322.3333333333333, 331.0, 340.3333333333333, 324.0, 335.3333333333333, 327.0, 322.6666666666667, 318.6666666666667, 320.3333333333333, 432.0, 316.3333333333333, 314.3333333333333, 
17:24:39.998946, 322.6666666666667, 329.3333333333333, 315.3333333333333, 321.6666666666667, 331.3333333333333, 327.6666666666667, 321.0, 319.0, 320.3333333333333, 215.66666666666666, 325.3333333333333, 325.3333333333333, 
17:24:40.006940, 322.6666666666667, 324.3333333333333, 311.6666666666667, 325.6666666666667, 331.0, 325.0, 323.0, 322.6666666666667, 323.3333333333333, 217.0, 327.3333333333333, 325.3333333333333, 
17:24:40.014935, 322.25, 327.5, 325.0, 325.75, 335.5, 327.25, 322.25, 320.75, 321.5, 320.75, 323.0, 320.75, 
17:24:40.022928, 324.0, 330.3333333333333, 328.6666666666667, 319.6666666666667, 330.6666666666667, 327.3333333333333, 325.0, 318.6666666666667, 322.0, 440.0, 315.0, 318.3333333333333, 
17:24:40.030923, 321.5, 328.5, 324.25, 321.75, 331.0, 326.5, 322.0, 320.0, 321.75, 365.25, 320.75, 320.25, 
17:24:40.038919, 320.0, 327.6666666666667, 333.0, 320.0, 329.3333333333333, 327.3333333333333, 325.3333333333333, 322.6666666666667, 322.0, 425.6666666666667, 315.6666666666667, 318.3333333333333, 
17:24:40.046913, 322.6666666666667, 326.6666666666667, 306.3333333333333, 326.0, 333.0, 326.3333333333333, 323.3333333333333, 320.6666666666667, 321.3333333333333, 293.3333333333333, 323.3333333333333, 320.6666666666667, 
17:24:40.054945, 321.0, 329.75, 318.25, 327.5, 335.0, 327.25, 323.5, 320.0, 320.25, 401.0, 319.75, 321.5, 
17:24:40.062903, 321.0, 327.5, 328.0, 320.0, 329.0, 324.5, 321.0, 317.5, 319.0, 533.5, 314.5, 320.0, 
17:24:40.070928, 319.0, 328.0, 318.5, 327.5, 336.0, 326.0, 324.0, 322.5, 326.5, 278.5, 330.5, 323.0, 
17:24:40.078894, 322.0, 330.5, 331.0, 323.5, 333.5, 324.5, 320.5, 317.5, 320.5, 556.5, 320.0, 319.5, 
17:24:40.086934, 318.0, 326.5, 308.0, 331.5, 337.5, 330.0, 321.5, 321.5, 322.0, 175.5, 328.5, 324.0, 
17:24:40.094882, 322.0, 328.0, 333.0, 318.5, 329.0, 324.5, 322.5, 318.0, 320.0, 599.5, 316.5, 320.5, 
17:24:40.102877, 318.0, 319.0, 306.5, 328.0, 335.0, 323.0, 320.5, 320.0, 322.0, 77.5, 328.5, 326.0, 
17:24:40.110869, 323.0, 333.0, 334.0, 320.5, 332.5, 327.0, 322.0, 319.5, 324.0, 616.0, 317.5, 317.0, 
17:24:40.118864, 317.5, 319.5, 297.0, 326.5, 330.0, 323.5, 319.5, 321.5, 322.0, 6.5, 332.5, 328.5, 
17:24:40.126866, 323.5, 332.0, 337.0, 316.5, 327.5, 325.0, 320.5, 318.0, 319.5, 636.0, 312.5, 314.5, 
17:24:40.134868, 318.0, 321.0, 297.0, 328.0, 331.5, 324.0, 320.0, 320.5, 321.0, 6.5, 338.0, 330.5, 
17:24:40.142850, 325.0, 335.0, 326.0, 320.5, 333.5, 328.0, 323.5, 321.0, 320.0, 635.0, 307.0, 315.0, 
17:24:40.150866, 320.0, 324.5, 302.5, 329.0, 335.0, 325.0, 322.0, 321.5, 322.0, 5.5, 336.5, 332.0, 
17:24:40.158837, 324.5, 334.5, 346.0, 317.0, 329.0, 327.0, 323.5, 322.0, 320.5, 634.5, 307.5, 311.5, 
17:24:40.166835, 321.0, 327.0, 301.0, 328.0, 329.0, 322.0, 319.0, 321.0, 323.0, 5.5, 340.5, 332.0, 
17:24:40.174880, 323.0, 331.5, 347.0, 321.5, 330.5, 327.5, 323.0, 319.5, 320.5, 635.0, 304.5, 315.0, 
17:24:40.182824, 319.0, 324.0, 297.5, 325.0, 334.0, 324.5, 321.0, 320.5, 322.0, 10.5, 338.5, 329.5, 
17:24:40.190867, 323.5, 329.0, 345.0, 316.0, 331.0, 328.0, 322.5, 318.0, 318.0, 635.5, 301.5, 312.5, 
17:24:40.198811, 319.5, 322.5, 299.5, 331.0, 331.0, 323.5, 320.5, 322.0, 324.0, 96.5, 340.5, 329.5, 
17:24:40.206858, 325.0, 328.0, 345.5, 317.0, 329.0, 330.5, 326.0, 317.5, 318.0, 634.5, 298.0, 311.0, 
17:24:40.214853, 320.0, 314.0, 298.5, 326.5, 331.5, 323.5, 321.5, 320.5, 321.5, 174.5, 336.5, 329.5, 
17:24:40.222796, 322.5, 334.0, 351.5, 320.5, 337.5, 329.0, 324.0, 322.0, 325.5, 635.0, 306.5, 309.0, 
17:24:40.230790, 319.0, 321.0, 313.5, 332.5, 331.5, 324.0, 322.0, 322.5, 321.5, 236.0, 338.5, 330.5, 
17:24:40.238787, 322.5, 335.0, 348.0, 320.5, 333.5, 330.0, 325.5, 318.0, 320.0, 634.5, 300.0, 310.5, 
17:24:40.246780, 318.0, 317.5, 297.0, 326.0, 330.5, 321.0, 318.0, 319.5, 321.5, 292.5, 342.0, 331.5, 
17:24:40.254774, 322.0, 335.5, 343.0, 321.0, 329.0, 328.5, 323.0, 319.5, 320.5, 574.5, 307.5, 311.5, 
17:24:40.262802, 321.0, 315.5, 300.0, 327.0, 332.0, 323.0, 320.0, 321.0, 323.0, 320.5, 342.0, 331.0, 
17:24:40.270766, 318.0, 315.0, 323.0, 321.0, 330.0, 324.0, 322.0, 317.0, 316.0, 232.0, 300.0, 302.0, 
17:24:40.278758, 324.5, 352.0, 338.5, 321.0, 328.0, 328.0, 322.5, 318.5, 322.0, 634.0, 313.0, 320.0, 
17:24:40.286798, 317.5, 321.5, 310.0, 330.0, 329.5, 324.0, 320.5, 322.0, 322.5, 18.5, 327.5, 318.5, 
17:24:40.294781, 322.5, 327.5, 344.0, 323.0, 327.5, 324.0, 320.0, 317.5, 319.0, 635.5, 303.5, 328.5, 
17:24:40.302770, 319.0, 319.5, 297.5, 323.0, 334.5, 327.5, 323.0, 326.0, 328.5, 8.5, 347.5, 322.0, 
17:24:40.310768, 324.0, 332.0, 343.5, 316.5, 329.5, 331.0, 323.5, 320.5, 317.5, 636.0, 311.0, 312.0, 
17:24:40.318761, 318.0, 328.0, 305.5, 335.5, 335.0, 325.0, 322.0, 323.0, 326.0, 8.0, 344.0, 335.0, 
17:24:40.326766, 324.5, 332.0, 341.5, 321.0, 329.0, 327.0, 323.0, 318.5, 320.0, 635.0, 310.5, 313.0, 
17:24:40.334720, 320.5, 316.0, 298.5, 325.5, 330.0, 323.0, 320.5, 320.5, 319.5, 6.0, 339.0, 327.0, 
17:24:40.342748, 322.0, 338.5, 353.5, 324.5, 330.5, 332.5, 327.5, 319.0, 320.5, 634.0, 302.0, 315.0, 
17:24:40.350714, 318.0, 311.5, 297.0, 322.5, 331.0, 320.5, 319.5, 320.5, 323.5, 7.5, 347.0, 335.0, 
17:24:40.358704, 322.5, 344.0, 353.5, 323.5, 328.0, 330.5, 326.5, 321.0, 320.0, 634.0, 300.0, 312.0, 
17:24:40.366705, 320.5, 326.0, 294.0, 328.0, 329.5, 321.5, 319.5, 319.0, 318.0, 57.5, 333.5, 339.5, 
17:24:40.374696, 325.0, 324.0, 339.5, 311.0, 333.5, 328.5, 325.5, 320.5, 324.0, 635.5, 307.0, 307.0, 
17:24:40.382692, 318.0, 320.0, 304.5, 327.5, 335.5, 325.0, 322.5, 322.0, 322.0, 146.5, 340.5, 325.0, 
17:24:40.390736, 323.5, 341.0, 355.0, 316.0, 329.0, 327.5, 322.0, 319.0, 319.5, 635.5, 299.0, 309.5, 
17:24:40.398677, 319.0, 309.5, 293.0, 332.5, 333.0, 325.5, 322.0, 320.0, 318.5, 224.0, 344.0, 341.5, 
17:24:40.406702, 323.0, 334.5, 355.0, 311.0, 328.5, 325.0, 323.5, 320.0, 325.5, 634.0, 308.0, 306.0, 
17:24:40.416891, 319.0, 327.0, 300.0, 332.5, 331.5, 323.0, 319.5, 321.0, 320.5, 288.0, 342.0, 325.5, 
17:24:40.424888, 321.5, 334.5, 340.5, 313.5, 326.0, 327.0, 319.5, 316.5, 316.5, 633.5, 293.0, 306.0, 
17:24:40.432885, 318.5, 329.5, 292.5, 336.5, 334.5, 325.0, 322.0, 322.0, 323.0, 319.5, 338.5, 338.0, 
17:24:40.440874, 327.0, 327.5, 357.0, 310.0, 328.0, 320.5, 319.5, 317.0, 318.5, 614.0, 299.0, 320.5, 
17:24:40.448870, 320.5, 306.5, 281.5, 319.0, 332.5, 315.5, 316.5, 321.5, 326.5, 320.0, 339.5, 308.0, 
17:24:40.456865, 324.5, 335.5, 359.5, 319.5, 327.5, 329.5, 323.5, 319.0, 320.0, 472.5, 305.0, 310.0, 
17:24:40.466491, 319.6666666666667, 324.6666666666667, 297.0, 328.3333333333333, 334.3333333333333, 326.0, 322.3333333333333, 321.6666666666667, 323.0, 216.0, 332.0, 323.6666666666667, 
17:24:40.474486, 321.5, 334.0, 351.0, 316.0, 328.0, 323.0, 320.5, 317.0, 318.0, 634.0, 306.5, 310.5, 
17:24:40.482484, 320.0, 323.0, 271.0, 350.0, 346.0, 322.0, 320.0, 321.0, 324.0, 6.0, 354.0, 351.0, 
17:24:40.490479, 324.5, 340.5, 344.0, 313.0, 336.0, 328.5, 324.0, 319.5, 324.0, 321.0, 309.5, 302.5, 
17:24:40.498597, 321.0, 326.0, 329.0, 320.0, 328.0, 323.0, 320.0, 318.0, 313.0, 635.0, 314.0, 327.0, 
17:24:40.499658, 319.5, 331.0, 267.5, 332.0, 332.5, 325.0, 322.5, 322.5, 325.5, 5.5, 339.5, 332.5, 
17:24:40.507654, 323.0, 337.0, 375.0, 318.5, 330.0, 329.0, 323.5, 321.0, 316.5, 634.0, 307.0, 315.0, 
17:24:40.515649, 320.5, 320.5, 280.0, 323.0, 331.0, 321.5, 319.0, 320.0, 321.0, 6.0, 346.0, 321.5, 
17:24:40.523644, 326.5, 335.0, 369.0, 322.0, 333.0, 330.0, 322.5, 317.5, 321.5, 633.5, 303.5, 315.0, 
17:24:40.531638, 318.0, 321.0, 275.0, 331.5, 330.0, 321.5, 319.5, 321.5, 324.5, 6.5, 342.5, 333.0, 
17:24:40.539631, 324.5, 337.5, 380.0, 317.5, 330.5, 328.5, 324.0, 319.0, 321.0, 636.0, 299.0, 310.0, 
17:24:40.547627, 322.0, 324.0, 296.0, 324.0, 331.0, 322.0, 320.0, 320.0, 321.0, 216.0, 340.0, 331.0, 
17:24:40.555625, 325.5, 328.0, 320.0, 322.0, 333.0, 329.5, 324.5, 320.5, 321.0, 321.5, 318.0, 319.0, 
17:24:40.563744, 322.0, 334.0, 362.0, 323.0, 333.0, 329.0, 320.0, 318.0, 326.0, 639.0, 312.0, 316.0, 
17:24:40.563998, 319.5, 318.0, 267.5, 332.5, 333.0, 323.5, 319.5, 322.5, 323.5, 203.5, 342.0, 338.5, 
17:24:40.571997, 326.5, 335.5, 375.5, 313.5, 329.0, 332.0, 330.5, 325.5, 326.5, 638.5, 302.0, 303.0, 
17:24:40.579989, 322.0, 335.0, 305.0, 329.0, 335.0, 319.0, 321.0, 322.0, 323.0, 562.0, 341.0, 333.0, 
17:24:40.588013, 320.0, 321.0, 297.0, 323.0, 332.5, 331.0, 325.0, 320.5, 322.0, 320.5, 322.0, 322.5, 
17:24:40.595978, 322.0, 330.0, 348.5, 322.5, 332.5, 327.5, 319.5, 323.0, 320.0, 635.0, 321.5, 326.0, 
17:24:40.603973, 319.5, 316.5, 288.0, 326.0, 333.5, 329.5, 324.0, 320.0, 320.5, 322.5, 327.0, 321.0, 
17:24:40.611967, 326.0, 337.0, 341.0, 319.5, 329.5, 324.5, 319.0, 318.5, 322.5, 637.0, 315.5, 316.5, 
17:24:40.619963, 319.0, 321.0, 290.5, 326.5, 334.5, 327.0, 325.0, 324.5, 324.0, 205.5, 329.5, 320.0, 
17:24:40.627957, 322.0, 329.0, 346.0, 323.5, 334.0, 326.5, 322.5, 319.5, 321.0, 633.5, 315.0, 319.5, 
17:24:40.635952, 318.5, 327.5, 282.5, 332.0, 335.5, 322.0, 318.5, 321.0, 322.5, 20.0, 334.0, 327.5, 
17:24:40.643945, 322.0, 331.0, 361.0, 321.0, 334.0, 329.5, 324.0, 319.5, 323.0, 637.0, 316.0, 313.5, 
17:24:40.651940, 320.5, 327.5, 307.0, 327.5, 333.0, 323.0, 322.5, 321.0, 321.5, 5.5, 336.5, 326.5, 
17:24:40.659936, 322.5, 330.5, 361.5, 317.5, 328.5, 326.0, 323.5, 320.0, 323.0, 587.5, 309.0, 314.5, 
17:24:40.667931, 319.0, 327.0, 285.0, 331.0, 330.5, 322.5, 318.5, 321.5, 323.0, 163.5, 339.5, 336.5, 
17:24:40.675926, 323.5, 344.0, 362.5, 321.0, 332.5, 330.5, 325.0, 321.5, 323.5, 294.5, 307.0, 309.0, 
17:24:40.683921, 321.0, 319.5, 281.5, 327.0, 336.0, 315.0, 315.0, 319.5, 321.5, 212.0, 334.5, 327.5, 
17:24:40.691914, 325.0, 345.5, 359.5, 322.0, 329.0, 336.0, 324.0, 318.0, 320.5, 359.5, 310.0, 326.0, 
17:24:40.699909, 322.5, 314.0, 261.5, 327.0, 332.0, 316.0, 318.0, 320.0, 322.0, 235.0, 340.0, 328.5, 
17:24:40.707904, 324.0, 331.0, 390.0, 318.5, 326.0, 329.5, 322.0, 317.5, 319.0, 372.5, 305.5, 306.5, 
17:24:40.715902, 318.5, 321.5, 283.5, 331.0, 332.0, 326.0, 318.5, 322.0, 324.5, 246.0, 346.0, 327.5, 
17:24:40.723894, 325.0, 327.5, 369.5, 313.0, 329.5, 325.5, 326.0, 319.5, 316.5, 385.5, 298.0, 315.0, 
17:24:40.731890, 321.5, 322.0, 273.5, 326.5, 331.0, 322.5, 320.0, 322.0, 324.5, 249.5, 343.0, 330.0, 
17:24:40.739881, 323.0, 330.0, 384.0, 314.0, 330.0, 329.0, 322.5, 319.0, 322.0, 462.5, 305.0, 314.5, 
17:24:40.747879, 323.0, 325.0, 285.0, 332.0, 335.0, 324.0, 327.0, 325.0, 323.0, 441.0, 342.0, 355.0, 
17:24:40.755913, 325.5, 336.5, 321.5, 320.5, 333.5, 330.5, 324.0, 318.5, 321.0, 435.5, 311.0, 314.0, 
17:24:40.764047, 325.0, 340.0, 364.0, 318.0, 327.0, 324.0, 322.0, 316.0, 316.0, 634.0, 317.0, 316.0, 
17:24:40.764522, 319.0, 322.5, 257.5, 326.5, 331.0, 323.0, 322.0, 320.0, 321.5, 269.5, 339.0, 330.0, 
17:24:40.772550, 325.0, 337.0, 361.0, 318.5, 333.0, 331.0, 325.0, 318.0, 320.0, 634.5, 301.5, 301.0, 
17:24:40.780512, 325.0, 335.0, 334.0, 322.0, 329.0, 318.0, 321.0, 321.0, 321.0, 429.0, 331.0, 329.0, 
17:24:40.788538, 321.0, 329.5, 315.0, 328.0, 335.5, 330.5, 325.0, 322.0, 323.5, 321.5, 318.5, 319.0, 
17:24:40.796504, 322.0, 332.0, 323.0, 327.5, 333.0, 324.5, 322.0, 323.5, 319.5, 578.0, 318.0, 322.5, 
17:24:40.804542, 321.5, 327.0, 310.0, 327.0, 334.0, 328.0, 323.5, 320.5, 323.5, 322.5, 320.0, 319.5, 
17:24:40.812518, 321.0, 332.5, 342.0, 322.0, 329.5, 324.5, 320.5, 318.0, 321.0, 601.5, 316.0, 321.0, 
17:24:40.820487, 321.5, 329.0, 329.0, 331.5, 334.5, 327.0, 322.5, 320.0, 324.5, 321.0, 325.0, 318.5, 
17:24:40.828510, 324.5, 345.0, 342.0, 326.0, 336.0, 335.0, 321.5, 320.5, 320.0, 606.0, 312.5, 319.0, 
17:24:40.836476, 319.5, 314.0, 286.0, 325.5, 336.5, 324.0, 321.0, 322.0, 327.5, 221.5, 332.0, 308.5, 
17:24:40.844471, 325.0, 342.5, 303.5, 317.5, 328.0, 327.0, 321.0, 318.5, 316.5, 634.0, 311.0, 338.0, 
17:24:40.852464, 318.0, 319.0, 308.0, 332.0, 330.5, 324.0, 321.0, 322.5, 326.0, 72.5, 333.5, 325.0, 
17:24:40.860458, 325.0, 329.0, 332.5, 319.0, 330.5, 327.0, 322.5, 320.0, 324.0, 636.5, 315.0, 317.5, 
17:24:40.868453, 319.0, 325.5, 287.5, 327.5, 331.5, 325.5, 321.0, 321.5, 323.5, 6.0, 343.0, 327.5, 
17:24:40.876450, 323.0, 332.5, 380.0, 321.5, 335.5, 325.0, 322.5, 317.5, 320.0, 637.5, 310.0, 314.0, 
17:24:40.884471, 320.0, 324.5, 281.0, 328.0, 331.5, 323.5, 323.0, 323.0, 320.5, 5.5, 336.5, 328.0, 
17:24:40.892437, 322.5, 329.5, 370.5, 316.0, 331.0, 326.5, 320.5, 318.0, 320.0, 634.0, 304.5, 310.5, 
17:24:40.900461, 319.0, 323.5, 299.0, 331.0, 334.0, 323.5, 321.0, 320.5, 322.0, 6.5, 341.5, 334.0, 
17:24:40.908426, 326.0, 336.0, 359.0, 316.5, 329.5, 331.5, 322.5, 319.0, 322.0, 635.5, 305.0, 312.5, 
17:24:40.916427, 321.5, 325.5, 291.0, 330.5, 337.0, 322.0, 320.5, 321.5, 322.0, 5.5, 340.5, 335.0, 
17:24:40.924415, 322.5, 336.5, 350.0, 315.5, 329.5, 327.0, 325.5, 322.0, 322.0, 636.0, 302.5, 312.0, 
17:24:40.932410, 320.5, 324.5, 284.5, 327.5, 330.0, 322.5, 319.5, 320.5, 322.5, 53.5, 343.5, 332.5, 
17:24:40.940434, 324.0, 331.0, 342.5, 313.5, 326.0, 330.0, 325.5, 317.0, 318.5, 634.0, 296.0, 307.0, 
17:24:40.948399, 318.0, 314.5, 294.5, 328.5, 330.5, 323.5, 320.5, 320.5, 323.0, 118.0, 345.5, 334.0, 
17:24:40.956396, 323.5, 334.0, 325.0, 315.0, 329.5, 329.5, 323.0, 318.5, 321.5, 635.5, 299.0, 315.5, 
17:24:40.964390, 319.5, 323.0, 302.5, 332.0, 336.0, 323.5, 319.5, 322.5, 321.0, 225.5, 345.0, 335.0, 
17:24:40.972383, 324.5, 337.5, 360.5, 321.5, 337.5, 330.5, 323.5, 321.0, 325.5, 634.5, 297.5, 305.5, 
17:24:40.980380, 321.0, 315.5, 275.5, 330.0, 331.5, 325.5, 321.5, 322.0, 322.0, 287.5, 339.5, 334.5, 
17:24:40.988373, 322.0, 337.0, 366.0, 310.0, 327.0, 319.0, 329.0, 322.0, 322.0, 637.0, 287.0, 290.0, 
17:24:40.996369, 325.0, 334.5, 345.0, 329.5, 331.5, 331.0, 321.5, 318.5, 322.5, 622.0, 319.5, 319.5, 
17:24:41.004392, 322.5, 326.5, 286.0, 326.5, 334.0, 324.5, 321.0, 319.5, 321.0, 320.0, 322.5, 321.0, 
17:24:41.012357, 322.5, 331.0, 348.0, 323.5, 335.0, 325.0, 323.5, 320.0, 322.5, 634.0, 316.5, 317.0, 
17:24:41.020355, 321.0, 322.0, 270.5, 329.5, 333.0, 325.0, 322.0, 324.5, 325.5, 282.5, 337.0, 325.0, 
17:24:41.028347, 323.5, 331.5, 355.0, 319.5, 328.0, 325.0, 325.0, 322.5, 318.0, 634.0, 306.0, 318.0, 
17:24:41.036341, 318.5, 322.0, 304.0, 328.5, 331.5, 324.5, 322.0, 322.0, 323.5, 92.5, 341.0, 328.5, 
17:24:41.044363, 321.0, 330.0, 322.5, 317.5, 329.5, 326.0, 324.0, 316.5, 318.5, 634.5, 307.5, 315.0, 
17:24:41.052330, 318.0, 321.0, 298.5, 331.0, 334.5, 323.5, 320.5, 321.0, 321.5, 6.5, 341.5, 332.5, 
17:24:41.060354, 323.5, 338.0, 349.5, 322.0, 334.0, 329.0, 323.5, 323.5, 321.5, 634.0, 309.0, 314.0, 
17:24:41.068322, 319.0, 327.5, 296.5, 331.5, 333.0, 328.5, 326.5, 324.5, 321.5, 5.5, 343.0, 334.5, 
17:24:41.076344, 324.0, 336.5, 349.0, 319.0, 331.0, 326.0, 324.5, 319.5, 320.0, 634.5, 305.0, 313.0, 
17:24:41.084308, 320.5, 310.5, 302.0, 331.5, 336.5, 325.5, 324.0, 319.0, 322.0, 8.5, 350.0, 338.5, 
17:24:41.092306, 328.0, 334.5, 336.0, 316.5, 330.5, 331.0, 326.5, 316.0, 319.5, 633.5, 302.5, 315.5, 
17:24:41.100298, 322.5, 330.0, 281.0, 330.0, 332.0, 324.0, 322.5, 325.0, 322.0, 5.0, 343.5, 337.5, 
17:24:41.108328, 323.0, 330.0, 360.5, 314.0, 330.0, 327.5, 323.0, 317.0, 321.5, 636.0, 299.0, 305.5, 
17:24:41.116289, 320.5, 321.5, 302.0, 328.5, 333.5, 323.5, 319.5, 320.5, 320.5, 6.5, 343.0, 330.0, 
17:24:41.124284, 323.5, 333.5, 329.0, 316.5, 331.5, 332.5, 327.0, 320.5, 323.0, 633.5, 296.0, 307.5, 
17:24:41.133424, 318.5, 327.0, 295.5, 329.5, 331.0, 325.0, 318.5, 320.5, 321.5, 39.0, 346.0, 333.5, 
17:24:41.141447, 324.0, 339.5, 353.0, 317.0, 329.0, 328.5, 323.5, 319.0, 320.0, 635.0, 299.0, 308.5, 
17:24:41.149415, 319.0, 313.5, 292.0, 330.0, 330.5, 321.0, 319.0, 322.0, 320.0, 104.0, 341.0, 331.0, 
17:24:41.157442, 322.5, 336.5, 353.5, 317.0, 331.5, 328.5, 324.0, 318.0, 318.5, 635.5, 295.5, 303.5, 
17:24:41.165401, 321.0, 318.5, 292.5, 331.5, 334.0, 324.0, 322.5, 324.5, 323.0, 132.0, 342.0, 332.0, 
17:24:41.173429, 323.0, 342.0, 349.5, 318.0, 330.5, 328.5, 326.5, 319.5, 322.5, 590.5, 303.0, 308.0, 
17:24:41.183427, 320.5, 318.5, 295.5, 331.0, 333.0, 321.5, 318.5, 321.0, 320.0, 119.0, 344.5, 333.5, 
17:24:41.191423, 322.5, 335.0, 345.0, 319.5, 336.5, 333.5, 325.0, 319.0, 323.0, 503.5, 301.5, 314.0, 
17:24:41.199418, 320.5, 327.0, 306.5, 324.5, 330.5, 321.5, 317.0, 319.0, 321.0, 320.0, 335.0, 330.5, 
17:24:41.207414, 321.0, 314.5, 344.5, 321.5, 332.0, 329.0, 324.0, 319.5, 323.0, 572.0, 300.5, 311.0, 
17:24:41.215407, 322.0, 330.5, 296.5, 331.5, 333.5, 323.0, 319.0, 319.5, 320.0, 321.0, 339.5, 336.0, 
17:24:41.223404, 321.0, 334.5, 338.5, 319.5, 328.0, 326.5, 325.0, 318.0, 317.5, 634.5, 304.0, 315.0, 
17:24:41.231568, 322.0, 333.0, 330.0, 330.0, 330.0, 328.0, 320.0, 321.0, 328.0, 637.0, 334.0, 328.0, 
17:24:41.233544, 317.0, 302.5, 304.0, 325.5, 330.0, 320.5, 322.0, 322.0, 321.0, 42.0, 329.0, 327.5, 
17:24:41.241537, 323.0, 333.5, 342.0, 322.0, 329.5, 328.0, 323.5, 319.0, 317.0, 636.0, 310.0, 318.0, 
17:24:41.249534, 319.5, 322.0, 301.5, 337.0, 334.0, 326.0, 321.5, 320.5, 322.0, 7.5, 340.5, 337.0, 
17:24:41.257529, 324.5, 336.0, 346.0, 313.5, 333.5, 325.0, 322.0, 318.0, 323.0, 634.0, 307.5, 313.0, 
17:24:41.265523, 327.0, 314.0, 287.0, 331.0, 333.0, 325.0, 323.0, 322.0, 321.0, 7.0, 348.0, 340.0, 
17:24:41.273549, 323.5, 348.5, 329.5, 317.0, 332.5, 328.5, 321.0, 317.5, 318.5, 321.5, 310.5, 309.0, 
17:24:41.281593, 320.0, 364.0, 319.0, 325.0, 330.0, 332.0, 326.0, 320.0, 319.0, 635.0, 322.0, 334.0, 
17:24:41.282051, 320.0, 328.5, 295.5, 327.5, 330.0, 321.5, 320.0, 323.5, 323.0, 7.5, 341.0, 328.0, 
17:24:41.290089, 327.0, 338.0, 352.0, 320.0, 332.5, 330.0, 327.5, 322.5, 322.5, 634.0, 294.0, 313.5, 
17:24:41.298069, 323.0, 327.0, 296.5, 331.0, 334.5, 323.0, 320.0, 319.5, 321.5, 34.5, 339.5, 334.0, 
17:24:41.306043, 324.5, 326.0, 357.0, 315.5, 331.5, 327.5, 325.5, 323.0, 325.5, 636.5, 299.0, 306.0, 
17:24:41.314059, 321.0, 329.0, 315.0, 328.0, 340.0, 321.0, 320.0, 320.0, 315.0, 347.0, 335.0, 336.0, 
17:24:41.322049, 319.5, 331.5, 320.0, 334.0, 330.5, 330.5, 323.5, 320.5, 324.5, 323.0, 314.5, 329.5, 
17:24:41.330021, 326.5, 315.5, 327.5, 319.5, 331.5, 328.0, 322.0, 320.0, 320.5, 597.0, 320.0, 319.0, 
17:24:41.338016, 319.5, 330.5, 316.0, 321.5, 337.5, 333.5, 323.5, 321.0, 322.5, 320.0, 332.5, 309.5, 
17:24:41.346009, 322.0, 307.5, 326.5, 311.5, 328.5, 320.0, 319.0, 318.0, 322.5, 614.5, 315.5, 313.5, 
17:24:41.354003, 319.5, 330.0, 319.0, 329.0, 333.0, 326.5, 323.5, 322.5, 326.0, 321.0, 332.0, 318.5, 
17:24:41.361998, 327.0, 340.0, 329.5, 328.5, 331.0, 326.0, 322.0, 319.0, 318.0, 634.0, 306.5, 333.0, 
17:24:41.369994, 320.5, 316.0, 306.5, 324.0, 330.0, 325.0, 321.5, 320.0, 323.0, 290.0, 326.0, 320.0, 
17:24:41.377988, 321.5, 333.0, 332.5, 324.0, 331.0, 325.0, 320.5, 318.0, 318.5, 636.5, 318.5, 326.0, 
17:24:41.385983, 318.5, 326.0, 301.5, 313.0, 329.5, 320.5, 319.0, 319.5, 321.0, 171.5, 336.0, 303.0, 
17:24:41.393977, 322.0, 333.5, 339.5, 326.5, 335.0, 326.0, 322.5, 321.5, 321.5, 634.0, 309.5, 317.5, 
17:24:41.401971, 318.0, 322.5, 300.5, 327.0, 332.0, 325.5, 326.5, 325.0, 321.0, 46.5, 331.0, 330.0, 
17:24:41.409968, 325.0, 323.0, 337.5, 327.5, 335.0, 327.5, 322.5, 318.5, 320.5, 635.0, 317.0, 324.0, 
17:24:41.417961, 318.5, 319.5, 294.0, 328.5, 335.0, 325.0, 321.0, 321.0, 322.5, 6.5, 340.0, 327.5, 
17:24:41.425958, 323.0, 339.5, 346.0, 323.5, 333.0, 330.0, 324.5, 321.5, 320.0, 636.5, 309.0, 319.0, 
17:24:41.433951, 319.5, 333.5, 301.5, 334.5, 333.5, 325.5, 321.5, 320.5, 322.0, 7.0, 345.5, 335.0, 
17:24:41.441949, 327.0, 324.0, 342.0, 302.5, 328.5, 322.5, 322.5, 318.5, 322.5, 633.5, 301.0, 317.0, 
17:24:41.449942, 318.5, 324.0, 300.5, 332.5, 333.0, 325.5, 323.0, 323.0, 325.5, 7.0, 345.5, 343.0, 
17:24:41.457934, 327.0, 332.0, 341.5, 316.5, 329.5, 327.0, 322.5, 317.0, 317.5, 634.5, 301.5, 313.5, 
17:24:41.465928, 318.0, 322.5, 298.5, 331.5, 333.5, 324.5, 321.0, 320.5, 321.0, 5.5, 339.0, 337.5, 
17:24:41.473926, 325.5, 336.0, 348.0, 316.5, 328.0, 327.0, 323.5, 317.5, 320.0, 635.5, 302.0, 313.5, 
17:24:41.481950, 318.5, 321.5, 297.5, 329.5, 333.5, 323.5, 320.5, 321.0, 322.5, 58.0, 340.5, 331.5, 
17:24:41.489914, 323.5, 335.0, 350.5, 318.0, 330.5, 328.0, 325.5, 321.5, 321.5, 635.5, 305.0, 311.0, 
17:24:41.497938, 321.0, 319.5, 299.5, 332.0, 338.0, 324.0, 321.0, 320.5, 322.5, 148.0, 347.5, 331.0, 
17:24:41.505904, 322.5, 334.5, 345.5, 318.5, 333.0, 330.5, 326.0, 323.0, 323.0, 638.5, 300.5, 311.0, 
17:24:41.513899, 322.0, 326.0, 311.0, 325.0, 331.0, 324.0, 320.0, 319.0, 320.0, 415.0, 332.0, 329.0, 
17:24:41.521924, 319.0, 326.0, 314.5, 324.0, 330.5, 325.5, 320.5, 319.5, 320.0, 320.0, 318.0, 318.0, 
17:24:41.529922, 321.5, 332.5, 333.0, 322.0, 329.5, 325.5, 323.0, 322.5, 324.0, 573.0, 323.0, 322.5, 
17:24:41.537884, 319.5, 321.0, 308.0, 323.0, 332.5, 324.5, 323.0, 322.5, 322.5, 322.0, 324.5, 325.5, 
17:24:41.545876, 323.5, 333.5, 333.5, 322.5, 332.0, 330.0, 325.0, 322.0, 320.0, 621.0, 319.5, 321.0, 
17:24:41.553874, 321.5, 321.5, 301.5, 327.0, 333.5, 322.5, 322.5, 320.5, 323.0, 279.0, 325.5, 323.0, 
17:24:41.561866, 323.5, 334.5, 334.5, 326.5, 329.0, 333.0, 320.5, 318.5, 320.5, 634.5, 315.5, 320.0, 
17:24:41.569858, 322.0, 329.0, 301.5, 329.0, 329.5, 318.0, 320.0, 321.0, 323.5, 171.0, 333.0, 327.5, 
17:24:41.577853, 322.5, 331.5, 330.5, 322.5, 331.5, 323.5, 319.5, 318.0, 319.5, 635.5, 312.5, 314.0, 
17:24:41.585848, 317.5, 320.5, 297.5, 331.5, 328.0, 320.5, 318.5, 323.0, 326.5, 33.0, 334.0, 330.5, 
17:24:41.593842, 323.0, 329.0, 341.0, 318.5, 329.5, 327.0, 326.5, 318.5, 320.5, 634.0, 312.5, 318.5, 
17:24:41.601861, 321.5, 321.0, 300.0, 335.0, 333.5, 326.0, 321.0, 319.5, 322.5, 7.0, 339.5, 331.5, 
17:24:41.609861, 322.5, 331.0, 340.5, 321.0, 334.0, 325.0, 321.5, 320.5, 320.5, 635.0, 310.0, 308.0, 
17:24:41.617827, 319.0, 323.5, 290.0, 325.5, 328.5, 323.0, 321.5, 318.5, 319.0, 5.5, 337.0, 327.5, 
17:24:41.625821, 328.0, 334.5, 350.5, 320.5, 331.5, 329.5, 322.0, 318.5, 320.5, 635.0, 308.5, 316.5, 
17:24:41.633817, 319.5, 331.5, 299.5, 324.0, 330.0, 322.5, 319.0, 321.0, 322.0, 5.0, 339.5, 321.0, 
17:24:41.641813, 322.5, 317.5, 345.0, 319.5, 333.5, 325.5, 323.5, 321.0, 323.0, 635.5, 307.0, 314.5, 
17:24:41.649809, 319.0, 321.0, 302.0, 332.5, 338.5, 329.0, 322.0, 321.0, 321.0, 6.5, 337.5, 333.5, 
17:24:41.657834, 324.5, 333.5, 356.0, 318.5, 331.0, 328.0, 322.0, 318.5, 319.0, 637.0, 300.0, 310.0, 
17:24:41.665824, 319.5, 314.5, 300.0, 324.0, 329.0, 323.0, 323.5, 320.0, 326.0, 76.5, 341.0, 331.5, 
17:24:41.673825, 322.5, 317.0, 335.5, 316.5, 331.0, 331.0, 322.5, 319.0, 320.5, 635.0, 302.0, 301.0, 
17:24:41.681814, 318.0, 334.0, 281.5, 331.0, 332.5, 319.5, 320.5, 319.0, 320.0, 152.5, 338.0, 335.5, 
17:24:41.689781, 322.5, 331.5, 331.0, 318.5, 329.5, 336.0, 325.5, 318.0, 321.0, 634.5, 299.5, 304.5, 
17:24:41.697775, 318.5, 307.0, 316.0, 330.0, 335.5, 322.5, 319.5, 321.0, 321.5, 216.5, 340.5, 335.5, 
17:24:41.705769, 323.5, 328.0, 333.5, 316.5, 334.5, 327.5, 323.5, 318.0, 318.5, 635.0, 292.5, 304.5, 
17:24:41.713763, 320.0, 316.5, 317.0, 331.5, 330.0, 321.0, 320.0, 321.0, 324.0, 272.0, 348.5, 323.5, 
17:24:41.721762, 322.5, 341.0, 324.0, 321.5, 330.5, 330.0, 326.5, 318.5, 319.5, 635.0, 298.0, 330.5, 
17:24:41.729754, 325.0, 344.0, 325.0, 319.0, 327.0, 329.0, 321.0, 318.0, 319.0, 635.0, 328.0, 304.0, 
17:24:41.737750, 320.0, 315.5, 289.5, 327.0, 336.5, 326.0, 320.0, 320.0, 319.5, 267.0, 321.0, 329.5, 
17:24:41.745777, 322.0, 327.0, 339.0, 320.0, 331.5, 327.5, 324.5, 322.5, 326.5, 634.5, 320.0, 315.0, 
17:24:41.753739, 321.5, 328.5, 312.5, 331.5, 335.0, 327.5, 324.0, 320.0, 322.5, 110.5, 336.0, 324.0, 
17:24:41.761757, 323.0, 340.0, 331.0, 320.5, 332.0, 326.5, 321.5, 320.5, 321.5, 634.5, 309.0, 315.0, 
17:24:41.769726, 318.5, 320.5, 308.5, 333.5, 335.0, 326.0, 323.0, 322.0, 324.0, 7.5, 347.5, 333.0, 
17:24:41.777721, 323.5, 334.0, 329.5, 317.0, 332.5, 325.5, 323.0, 317.5, 317.5, 636.5, 302.5, 302.0, 
17:24:41.785745, 320.0, 326.5, 295.5, 335.5, 339.5, 327.0, 320.5, 321.0, 322.5, 8.0, 343.5, 335.5, 
17:24:41.793738, 324.5, 331.5, 346.5, 318.5, 329.0, 324.5, 325.0, 322.0, 320.5, 634.0, 305.5, 317.5, 
17:24:41.801706, 320.0, 313.5, 290.0, 328.0, 332.5, 323.5, 320.5, 320.0, 319.5, 5.5, 340.5, 334.0, 
17:24:41.809701, 325.5, 337.5, 361.0, 322.5, 334.0, 329.0, 323.5, 318.0, 320.0, 635.5, 307.5, 318.0, 
17:24:41.817697, 320.0, 322.5, 292.0, 326.5, 333.5, 322.5, 318.5, 319.5, 320.0, 6.0, 337.5, 338.0, 
17:24:41.825718, 323.0, 331.5, 327.0, 321.0, 334.0, 332.0, 324.5, 320.5, 324.0, 635.5, 306.5, 310.0, 
17:24:41.833688, 318.5, 319.0, 289.5, 327.0, 329.5, 322.0, 319.5, 319.0, 316.5, 6.0, 330.0, 333.0, 
17:24:41.841711, 326.5, 339.0, 327.5, 321.0, 333.0, 331.5, 327.5, 323.5, 321.0, 634.0, 296.5, 325.5, 
17:24:41.849672, 323.0, 331.5, 297.0, 328.0, 331.5, 323.0, 322.0, 319.5, 320.5, 119.5, 343.5, 331.0, 
17:24:41.857699, 323.5, 336.0, 364.0, 315.5, 328.0, 330.0, 324.0, 318.5, 321.0, 634.5, 304.5, 307.5, 
17:24:41.866441, 318.0, 331.5, 270.0, 328.0, 331.0, 324.5, 322.5, 322.5, 322.0, 234.5, 340.0, 326.5, 
17:24:41.874469, 322.5, 326.0, 342.0, 319.5, 334.0, 333.0, 324.5, 319.0, 321.0, 637.0, 299.5, 306.0, 
17:24:41.883794, 324.5, 324.5, 324.0, 326.0, 332.5, 323.0, 320.5, 319.5, 318.5, 289.5, 340.0, 333.5, 
17:24:41.891789, 322.5, 334.5, 342.0, 316.5, 331.5, 331.0, 325.5, 319.5, 322.0, 635.0, 301.5, 305.5, 
17:24:41.899783, 319.5, 324.0, 294.0, 331.0, 333.5, 322.5, 319.0, 321.5, 322.0, 322.0, 347.5, 338.5, 
17:24:41.907813, 321.5, 330.0, 349.5, 318.5, 332.5, 330.0, 326.0, 321.5, 319.5, 635.5, 297.5, 303.0, 
17:24:41.917280, 320.0, 323.5, 291.0, 331.5, 334.5, 322.0, 320.5, 321.5, 322.0, 321.5, 351.5, 339.0, 
17:24:41.925273, 323.5, 328.0, 336.5, 315.0, 331.5, 326.0, 321.5, 315.5, 315.5, 544.5, 291.5, 301.0, 
17:24:41.933267, 319.5, 323.5, 289.0, 328.0, 331.0, 323.0, 319.5, 324.0, 324.5, 321.0, 347.0, 340.5, 
17:24:41.941291, 322.0, 333.0, 349.5, 316.5, 329.0, 328.5, 325.0, 317.5, 317.5, 381.5, 295.0, 304.5, 
17:24:41.949454, 320.0, 325.0, 318.0, 320.0, 328.0, 327.0, 321.0, 319.0, 320.0, 634.0, 322.0, 321.0, 
17:24:41.950641, 318.0, 322.0, 298.0, 330.0, 335.0, 325.0, 322.0, 322.5, 324.0, 5.5, 344.5, 339.0, 
17:24:41.958640, 323.5, 334.5, 332.5, 320.0, 329.0, 326.5, 321.5, 318.5, 321.5, 635.0, 307.5, 317.5, 
17:24:41.966631, 319.5, 323.5, 289.5, 327.5, 332.0, 326.0, 323.5, 323.5, 323.5, 5.5, 344.5, 329.5, 
17:24:41.974656, 323.5, 333.0, 346.5, 317.0, 330.5, 326.5, 324.0, 319.5, 320.0, 635.5, 303.5, 311.5, 
17:24:41.982620, 320.0, 325.0, 290.5, 332.0, 334.5, 323.0, 318.5, 321.5, 324.0, 7.5, 347.0, 338.5, 
17:24:41.990613, 324.5, 335.5, 363.5, 318.5, 333.5, 328.5, 324.0, 318.5, 319.0, 634.5, 299.5, 307.0, 
17:24:41.998637, 324.0, 328.0, 295.0, 327.0, 331.0, 322.0, 326.0, 319.0, 321.0, 5.0, 357.0, 350.0, 
17:24:42.006636, 321.0, 328.0, 334.0, 318.0, 331.0, 329.0, 322.5, 318.5, 320.5, 320.0, 309.5, 309.0, 
17:24:42.014623, 322.0, 325.0, 331.5, 325.5, 331.0, 323.5, 320.5, 322.0, 321.0, 341.0, 322.5, 329.5, 
17:24:42.022627, 321.0, 328.0, 326.0, 320.0, 329.0, 327.5, 325.0, 324.0, 324.0, 322.5, 311.5, 312.0, 
17:24:42.030615, 321.0, 329.0, 324.5, 323.0, 337.0, 327.5, 322.5, 323.0, 322.0, 495.5, 327.0, 325.5, 
17:24:42.038611, 322.0, 326.0, 325.5, 329.0, 330.0, 327.5, 323.0, 324.0, 326.5, 323.5, 312.5, 315.0, 
17:24:42.046608, 322.0, 326.0, 334.5, 321.0, 330.0, 324.5, 321.0, 318.5, 321.0, 584.0, 325.5, 321.0, 
17:24:42.054600, 319.5, 323.5, 302.5, 321.0, 330.0, 325.0, 323.0, 317.5, 319.5, 323.0, 310.0, 316.0, 
17:24:42.062594, 321.0, 327.5, 331.0, 321.5, 326.0, 323.5, 320.5, 317.5, 321.5, 634.5, 324.0, 323.5, 
17:24:42.070561, 321.0, 326.0, 310.0, 324.5, 338.0, 328.5, 323.0, 323.5, 323.0, 320.5, 318.5, 321.0, 
17:24:42.078583, 324.0, 332.0, 335.5, 324.5, 330.5, 326.0, 325.5, 324.5, 321.0, 635.5, 316.5, 319.5, 
17:24:42.086549, 319.0, 323.5, 299.0, 335.0, 332.5, 326.0, 321.5, 319.5, 324.0, 320.0, 325.0, 320.5, 
17:24:42.094573, 320.5, 330.0, 337.0, 322.5, 332.5, 329.5, 325.0, 321.0, 320.0, 636.5, 317.0, 317.0, 
17:24:42.102542, 321.5, 325.5, 294.5, 327.0, 332.5, 325.0, 319.5, 320.0, 320.5, 322.0, 328.5, 322.0, 
17:24:42.110566, 324.5, 334.5, 339.0, 317.0, 327.0, 325.0, 320.0, 318.0, 319.0, 634.0, 310.0, 315.0, 
17:24:42.118528, 318.5, 326.0, 288.5, 329.5, 337.5, 326.5, 323.0, 323.5, 325.0, 169.0, 339.5, 331.0, 
17:24:42.126522, 322.0, 322.0, 337.5, 321.0, 333.5, 329.0, 325.5, 320.5, 321.0, 636.0, 310.5, 315.5, 
17:24:42.134519, 318.0, 303.5, 282.5, 329.0, 330.5, 321.5, 319.0, 322.0, 322.5, 6.5, 339.5, 328.0, 
17:24:42.142542, 323.5, 336.0, 349.5, 320.0, 328.0, 324.5, 321.0, 317.5, 321.0, 634.0, 305.5, 313.0, 
17:24:42.150508, 317.5, 320.0, 293.5, 332.5, 339.5, 323.5, 320.5, 322.0, 321.5, 8.0, 340.0, 335.5, 
17:24:42.158507, 328.0, 340.5, 357.0, 327.0, 331.5, 325.5, 320.5, 317.5, 322.0, 634.0, 310.0, 316.5, 
17:24:42.166497, 321.5, 336.5, 310.0, 339.0, 330.0, 323.0, 321.5, 321.0, 324.0, 8.5, 356.0, 340.5, 
17:24:42.174524, 322.0, 325.0, 357.5, 302.5, 329.0, 325.0, 323.5, 320.5, 320.0, 634.0, 304.5, 297.5, 
17:24:42.182531, 320.0, 329.5, 296.0, 331.5, 332.5, 324.5, 320.0, 320.5, 318.0, 8.5, 338.5, 339.0, 
17:24:42.190480, 327.0, 337.0, 372.0, 315.0, 327.0, 329.0, 323.5, 321.5, 318.0, 634.5, 299.0, 316.5, 
17:24:42.198474, 322.0, 346.0, 274.0, 324.0, 339.0, 325.0, 323.0, 326.0, 326.0, 51.0, 349.0, 326.0, 
17:24:42.206499, 322.5, 327.5, 347.0, 323.0, 330.0, 327.5, 322.5, 324.0, 323.0, 321.5, 309.0, 315.5, 
17:24:42.214464, 324.5, 332.0, 329.5, 322.5, 334.0, 322.5, 320.0, 323.0, 325.5, 489.0, 333.5, 328.5, 
17:24:42.222488, 320.5, 333.5, 328.5, 325.0, 331.5, 329.5, 323.0, 318.0, 321.5, 321.5, 306.5, 319.5, 
17:24:42.230489, 321.0, 320.5, 330.0, 327.0, 330.0, 326.0, 322.0, 320.0, 321.0, 538.5, 324.5, 329.5, 
17:24:42.238450, 319.0, 331.5, 306.5, 326.0, 331.5, 328.0, 324.5, 321.0, 324.0, 321.5, 314.5, 319.0, 
17:24:42.246445, 322.5, 329.5, 325.0, 321.5, 334.5, 320.5, 320.5, 318.5, 318.5, 453.5, 318.5, 316.5, 
17:24:42.254437, 319.5, 321.5, 305.0, 328.5, 330.0, 327.5, 322.0, 321.5, 323.5, 266.0, 320.0, 323.5, 
17:24:42.262433, 321.0, 327.5, 342.5, 322.0, 333.0, 328.5, 324.0, 320.5, 321.0, 319.5, 323.5, 313.0, 
17:24:42.270429, 319.0, 331.0, 301.0, 330.0, 332.5, 320.0, 317.0, 317.5, 318.0, 71.5, 312.5, 321.5, 
17:24:42.278423, 322.0, 341.5, 335.5, 320.0, 332.5, 327.0, 323.0, 322.0, 327.5, 446.5, 320.0, 315.5, 
17:24:42.286416, 318.5, 322.5, 301.5, 332.0, 333.0, 325.0, 324.0, 320.0, 320.5, 10.0, 336.0, 333.0, 
17:24:42.294413, 323.5, 333.5, 348.0, 327.5, 328.5, 326.5, 322.0, 320.5, 323.5, 589.5, 314.5, 322.0, 
17:24:42.302408, 318.0, 323.0, 296.0, 327.5, 327.0, 323.0, 321.0, 321.0, 322.0, 51.0, 340.0, 331.5, 
17:24:42.310400, 325.5, 332.5, 342.0, 323.5, 328.0, 324.0, 320.5, 318.5, 322.0, 635.0, 319.0, 327.0, 
17:24:42.318436, 318.0, 309.0, 295.0, 325.0, 331.0, 324.0, 324.0, 321.5, 323.0, 175.5, 337.5, 326.5, 
17:24:42.326419, 324.5, 344.0, 343.5, 330.5, 329.0, 328.0, 322.0, 321.0, 323.5, 635.5, 308.0, 331.5, 
17:24:42.334384, 318.5, 325.5, 291.0, 311.0, 331.5, 321.5, 321.5, 322.5, 322.5, 8.5, 345.0, 315.0, 
17:24:42.342379, 322.0, 327.5, 354.5, 307.0, 329.5, 329.5, 325.0, 317.5, 322.5, 637.5, 313.0, 281.5, 
17:24:42.350376, 318.5, 313.5, 286.5, 334.5, 336.5, 326.0, 321.5, 321.0, 322.0, 8.5, 345.0, 371.5, 
17:24:42.358370, 323.5, 344.5, 362.0, 316.5, 334.0, 327.5, 322.5, 319.5, 324.5, 634.0, 298.5, 314.5, 
17:24:42.366395, 318.5, 318.5, 286.0, 325.5, 331.0, 322.0, 320.0, 320.0, 324.0, 7.5, 348.5, 334.5, 
17:24:42.374386, 328.0, 337.0, 361.0, 321.5, 329.5, 331.5, 326.5, 317.5, 320.0, 638.5, 289.0, 319.0, 
17:24:42.382387, 321.0, 327.5, 285.0, 329.5, 337.0, 320.0, 318.0, 321.0, 326.0, 65.0, 355.5, 329.0, 
17:24:42.390368, 327.0, 339.5, 372.0, 316.5, 329.5, 330.5, 325.0, 318.0, 318.0, 635.5, 295.0, 310.5, 
17:24:42.398341, 321.0, 331.0, 286.0, 343.0, 335.5, 325.0, 323.0, 324.5, 325.5, 178.5, 341.5, 341.5, 
17:24:42.406336, 328.0, 334.5, 365.0, 305.0, 333.0, 323.5, 321.5, 316.0, 318.5, 638.0, 288.5, 294.5, 
17:24:42.414332, 327.0, 343.0, 316.0, 334.0, 330.0, 334.0, 327.0, 322.0, 322.0, 557.0, 351.0, 344.0, 
17:24:42.422328, 321.5, 327.5, 312.5, 320.0, 332.0, 325.5, 326.0, 320.0, 322.5, 320.0, 307.0, 318.5, 
17:24:42.430323, 321.5, 322.0, 336.5, 328.0, 333.0, 327.0, 324.5, 319.0, 322.5, 638.5, 325.5, 324.5, 
17:24:42.438317, 319.0, 328.5, 303.5, 329.5, 334.0, 330.5, 324.5, 321.5, 324.0, 323.5, 316.0, 326.0, 
17:24:42.446312, 321.5, 309.5, 333.0, 328.5, 331.0, 326.0, 321.0, 322.5, 319.0, 634.0, 318.0, 330.5, 
17:24:42.454307, 319.5, 325.5, 298.0, 313.0, 334.0, 328.5, 322.0, 321.0, 325.0, 321.0, 315.0, 317.0, 
17:24:42.462302, 321.5, 321.5, 341.5, 327.0, 333.5, 326.0, 321.0, 318.0, 321.5, 636.0, 318.0, 323.0, 
17:24:42.470296, 318.0, 323.0, 295.5, 327.0, 331.0, 325.5, 320.5, 321.0, 323.0, 321.5, 324.5, 314.5, 
17:24:42.478319, 322.0, 331.0, 345.0, 321.5, 328.5, 328.5, 325.0, 319.5, 323.0, 636.0, 321.5, 322.5, 
17:24:42.486285, 318.5, 324.5, 287.5, 327.5, 331.0, 322.5, 321.0, 320.5, 321.0, 266.0, 328.5, 325.5, 
17:24:42.494277, 323.5, 329.0, 350.0, 319.0, 333.5, 324.0, 322.0, 319.5, 320.0, 635.0, 317.0, 307.0, 
17:24:42.502272, 322.0, 324.5, 282.5, 333.0, 334.0, 324.0, 319.5, 320.0, 325.0, 48.0, 339.0, 330.0, 
17:24:42.510267, 322.5, 331.0, 355.5, 323.0, 330.5, 330.0, 321.5, 318.0, 322.0, 635.0, 310.0, 322.0, 
17:24:42.518264, 320.5, 326.0, 274.5, 328.0, 333.5, 321.0, 321.0, 323.0, 322.5, 6.5, 341.5, 322.0, 
17:24:42.526258, 324.0, 333.5, 362.5, 320.0, 335.5, 331.0, 321.5, 320.0, 318.0, 634.5, 306.0, 316.5, 
17:24:42.534253, 322.0, 321.0, 279.0, 333.5, 340.0, 321.0, 320.0, 322.5, 323.5, 6.0, 342.5, 329.5, 
17:24:42.542278, 322.5, 332.5, 366.0, 315.5, 330.5, 325.0, 322.5, 317.0, 322.0, 637.5, 306.5, 309.0, 
17:24:42.550243, 319.5, 319.0, 278.5, 324.5, 333.5, 323.5, 317.5, 322.0, 323.0, 7.0, 350.0, 336.5, 
17:24:42.558268, 325.0, 337.5, 368.5, 319.5, 334.0, 332.0, 326.0, 317.5, 319.0, 634.0, 300.0, 314.5, 
17:24:42.566258, 318.5, 320.0, 277.5, 336.0, 331.5, 321.5, 320.0, 320.5, 321.5, 7.5, 344.5, 333.0, 
17:24:42.574255, 324.5, 337.0, 377.0, 315.5, 330.5, 331.0, 322.5, 318.5, 322.5, 635.0, 297.5, 310.5, 
17:24:42.582245, 319.5, 327.0, 280.0, 334.0, 334.0, 327.0, 322.5, 325.0, 325.0, 172.0, 345.0, 327.5, 
17:24:42.590215, 326.0, 331.0, 368.5, 317.0, 331.5, 329.5, 325.5, 320.5, 319.0, 635.0, 293.5, 305.5, 
17:24:42.598239, 319.0, 325.5, 284.5, 331.0, 331.5, 325.0, 322.0, 321.0, 322.5, 280.5, 347.0, 335.5, 
17:24:42.606232, 324.0, 334.0, 378.5, 313.5, 332.5, 328.5, 322.5, 316.5, 317.5, 633.5, 289.5, 305.0, 
17:24:42.614233, 324.0, 332.0, 323.0, 322.0, 328.0, 326.0, 329.0, 318.0, 319.0, 634.0, 331.0, 328.0, 
17:24:42.622195, 318.5, 324.0, 303.5, 327.0, 334.5, 325.5, 324.5, 322.0, 324.0, 321.5, 325.0, 324.0, 
17:24:42.630217, 323.0, 326.0, 339.5, 318.0, 328.5, 326.5, 325.0, 318.0, 318.5, 636.0, 322.0, 316.0, 
17:24:42.638182, 319.0, 323.5, 309.0, 327.0, 332.5, 328.0, 321.5, 320.0, 323.5, 320.5, 324.5, 320.0, 
17:24:42.646177, 323.0, 336.5, 336.0, 324.0, 336.5, 326.5, 323.0, 318.0, 320.0, 634.0, 315.5, 321.5, 
17:24:42.654173, 320.0, 310.0, 305.5, 328.5, 332.5, 324.0, 321.0, 322.5, 324.0, 319.5, 327.0, 324.5, 
17:24:42.662169, 322.5, 329.0, 349.5, 320.5, 329.5, 327.5, 322.0, 319.0, 321.5, 635.0, 319.0, 321.5, 
17:24:42.670161, 320.5, 323.0, 291.5, 327.0, 329.5, 323.0, 319.5, 324.0, 322.0, 221.5, 330.5, 329.0, 
17:24:42.678185, 323.0, 329.5, 330.5, 320.5, 333.0, 327.0, 325.0, 318.5, 320.5, 634.5, 314.0, 319.5, 
17:24:42.686182, 318.0, 324.0, 281.5, 326.5, 331.5, 322.5, 318.5, 319.5, 319.0, 45.5, 327.0, 326.5, 
17:24:42.694174, 322.5, 334.0, 351.5, 318.0, 330.5, 327.0, 323.0, 322.5, 324.0, 633.5, 317.0, 318.5, 
17:24:42.702173, 318.5, 318.5, 277.5, 330.5, 331.0, 323.0, 320.0, 321.0, 321.5, 6.5, 338.5, 328.5, 
17:24:42.710163, 322.5, 333.5, 362.0, 316.5, 327.5, 325.0, 321.5, 321.5, 324.5, 636.5, 312.0, 305.5, 
17:24:42.718128, 322.5, 323.0, 284.5, 329.0, 329.5, 322.0, 319.5, 321.0, 320.5, 6.0, 341.5, 336.0, 
17:24:42.726123, 325.0, 331.5, 352.5, 314.5, 328.0, 327.0, 323.5, 319.5, 321.5, 635.5, 304.0, 312.5, 
17:24:42.734119, 320.0, 323.5, 297.5, 329.5, 333.5, 324.0, 323.5, 325.0, 329.0, 8.0, 353.5, 333.0, 
17:24:42.742114, 323.0, 329.5, 349.5, 321.0, 332.5, 331.0, 323.0, 323.5, 324.0, 635.0, 296.5, 313.5, 
17:24:42.751053, 319.5, 333.0, 303.0, 330.0, 334.0, 323.5, 321.5, 323.0, 324.0, 11.5, 346.0, 331.0, 
17:24:42.759049, 325.5, 332.0, 369.0, 318.0, 331.0, 331.0, 323.0, 319.5, 321.5, 636.0, 298.5, 300.5, 
17:24:42.767043, 320.0, 329.0, 295.0, 331.5, 333.5, 324.5, 321.5, 325.5, 326.0, 176.5, 339.5, 337.0, 
17:24:42.775041, 324.0, 324.5, 339.0, 317.0, 327.0, 328.0, 324.0, 322.0, 324.0, 636.5, 297.0, 306.5, 
17:24:42.783033, 321.5, 329.5, 279.5, 327.5, 328.5, 322.0, 318.5, 319.0, 319.0, 296.5, 346.0, 337.0, 
17:24:42.791027, 323.0, 334.5, 370.0, 314.0, 327.5, 330.5, 325.0, 322.0, 320.0, 634.5, 290.0, 302.0, 
17:24:42.799022, 321.0, 320.0, 277.0, 330.0, 331.5, 322.5, 320.5, 324.0, 323.0, 321.5, 344.0, 321.5, 
17:24:42.807017, 326.0, 340.0, 353.5, 319.5, 336.5, 331.0, 325.5, 320.0, 324.0, 636.5, 293.0, 305.5, 
17:24:42.815011, 318.5, 321.0, 309.0, 330.0, 330.5, 320.5, 319.0, 319.5, 320.0, 320.5, 344.5, 336.0, 
17:24:42.823034, 324.5, 336.0, 363.5, 315.0, 332.5, 330.5, 325.0, 318.5, 321.5, 636.0, 293.5, 299.0, 
17:24:42.831030, 320.0, 324.0, 286.5, 337.0, 339.0, 321.0, 319.5, 324.0, 324.0, 320.0, 349.5, 338.0, 
17:24:42.839024, 321.0, 330.0, 323.5, 316.0, 328.5, 329.0, 323.5, 318.5, 320.5, 634.0, 290.0, 303.0, 
17:24:42.847018, 319.0, 326.0, 293.5, 330.0, 331.5, 321.0, 318.5, 321.0, 320.5, 320.0, 351.5, 340.5, 
17:24:42.854984, 321.0, 318.5, 339.5, 317.0, 331.0, 328.0, 323.0, 317.5, 320.0, 548.0, 291.0, 302.5, 
17:24:42.863011, 320.0, 332.0, 338.0, 331.0, 327.0, 324.0, 320.0, 326.0, 324.0, 636.0, 334.0, 331.0, 
17:24:42.870994, 320.5, 322.0, 299.0, 331.0, 334.5, 323.5, 324.5, 325.5, 324.5, 45.0, 338.5, 327.5, 
17:24:42.878997, 325.0, 332.0, 335.5, 320.0, 332.0, 328.5, 324.0, 321.5, 319.0, 637.0, 305.0, 313.5, 
17:24:42.886993, 319.5, 324.5, 272.0, 331.0, 333.5, 325.0, 321.5, 323.0, 324.0, 6.0, 343.0, 335.5, 
17:24:42.894987, 323.5, 330.5, 362.0, 321.0, 327.0, 326.0, 322.5, 319.0, 322.5, 636.0, 307.0, 312.0, 
17:24:42.902953, 320.0, 326.0, 293.0, 334.5, 338.5, 322.5, 319.5, 321.5, 321.5, 5.5, 346.0, 338.5, 
17:24:42.910948, 322.0, 331.0, 355.0, 317.5, 330.0, 327.5, 322.0, 317.5, 321.0, 634.0, 303.0, 311.0, 
17:24:42.918943, 319.0, 334.5, 269.0, 335.5, 331.0, 323.0, 320.5, 325.0, 321.5, 5.0, 347.0, 340.0, 
17:24:42.926938, 328.5, 333.5, 353.0, 315.0, 330.0, 329.0, 324.0, 317.0, 320.0, 635.0, 298.0, 304.5, 
17:24:42.934933, 321.0, 327.0, 285.0, 327.5, 333.0, 324.0, 319.5, 324.5, 322.5, 40.5, 349.0, 340.0, 
17:24:42.942929, 323.0, 332.5, 350.5, 313.5, 331.0, 330.5, 323.0, 317.5, 319.0, 634.5, 288.5, 302.5, 
17:24:42.950921, 320.0, 323.0, 285.5, 333.0, 337.5, 326.0, 321.0, 324.5, 326.5, 198.5, 349.5, 339.0, 
17:24:42.958916, 323.0, 333.0, 382.0, 314.5, 334.0, 332.0, 327.0, 317.0, 318.5, 637.0, 291.0, 299.5, 
17:24:42.966909, 318.5, 326.5, 282.0, 334.5, 332.5, 324.5, 321.5, 321.5, 321.0, 301.5, 345.0, 341.5, 
17:24:42.974906, 322.5, 332.5, 346.0, 314.5, 333.5, 329.0, 323.5, 316.0, 321.0, 634.0, 288.5, 297.5, 
17:24:42.983064, 321.0, 328.0, 314.0, 327.0, 334.0, 332.0, 319.0, 319.0, 319.0, 634.0, 337.0, 331.0, 
17:24:42.985474, 319.5, 326.0, 315.5, 324.0, 329.5, 324.5, 321.0, 318.5, 319.5, 322.0, 317.5, 317.0, 
17:24:42.993505, 324.0, 334.0, 349.0, 325.0, 335.0, 328.0, 323.0, 320.0, 328.0, 637.0, 312.0, 313.0, 
17:24:43.001464, 321.0, 324.5, 283.0, 335.0, 332.0, 326.0, 324.0, 326.0, 322.5, 320.5, 347.5, 338.0, 
17:24:43.009460, 324.5, 339.0, 372.5, 318.0, 335.0, 330.5, 322.0, 320.0, 320.5, 636.0, 290.0, 298.0, 
17:24:43.017454, 320.5, 324.0, 269.5, 332.0, 335.5, 322.5, 320.0, 322.0, 322.5, 320.5, 347.5, 337.0, 
17:24:43.025446, 320.5, 329.5, 353.0, 315.5, 330.5, 330.0, 325.0, 318.0, 319.5, 634.0, 290.5, 304.5, 
17:24:43.033668, 320.0, 325.0, 318.0, 323.0, 329.0, 325.0, 323.0, 319.0, 321.0, 634.0, 327.0, 325.0, 
17:24:43.034597, 319.0, 325.0, 301.0, 334.0, 337.5, 326.5, 321.0, 320.5, 322.0, 158.0, 335.0, 319.5, 
17:24:43.042622, 325.5, 335.5, 356.0, 319.0, 332.0, 328.0, 324.0, 319.0, 319.5, 636.5, 314.0, 319.5, 
17:24:43.050587, 322.5, 323.5, 289.5, 329.5, 336.5, 327.5, 321.0, 321.5, 321.0, 8.5, 338.5, 333.5, 
17:24:43.058582, 325.0, 333.0, 354.5, 319.5, 331.5, 328.5, 324.5, 321.5, 320.5, 636.5, 310.0, 315.5, 
17:24:43.066605, 321.0, 327.0, 268.0, 332.0, 332.0, 318.0, 317.0, 326.0, 327.0, 5.0, 372.0, 360.0, 
17:24:43.074571, 321.0, 329.0, 352.0, 322.5, 338.0, 327.5, 325.5, 319.5, 321.5, 320.0, 302.0, 306.0, 
17:24:43.082766, 321.0, 325.0, 316.0, 321.0, 328.0, 324.0, 321.0, 318.0, 319.0, 634.0, 320.0, 321.0, 
17:24:43.083196, 320.0, 324.5, 281.5, 329.0, 332.0, 323.0, 320.5, 328.0, 328.0, 6.5, 346.0, 339.5, 
17:24:43.091219, 323.5, 331.0, 366.0, 319.0, 329.0, 330.5, 325.0, 319.0, 323.0, 636.0, 302.5, 309.5, 
17:24:43.099188, 319.0, 329.0, 284.5, 330.5, 333.5, 325.0, 323.0, 324.0, 323.0, 7.0, 347.0, 340.0, 
17:24:43.107181, 323.0, 327.5, 372.0, 316.0, 330.5, 328.0, 323.5, 317.5, 319.0, 634.0, 295.5, 305.5, 
17:24:43.115176, 322.0, 328.0, 294.0, 331.0, 335.0, 325.0, 321.0, 322.0, 320.0, 102.0, 349.0, 340.0, 
17:24:43.123201, 320.0, 323.0, 325.5, 321.0, 330.0, 327.0, 323.0, 323.0, 322.5, 320.5, 310.5, 316.0, 
17:24:43.131164, 324.0, 325.5, 314.5, 321.5, 332.5, 324.5, 320.5, 320.5, 320.5, 469.0, 327.0, 327.0, 
17:24:43.139159, 325.5, 338.0, 325.5, 321.0, 328.5, 327.5, 323.5, 320.0, 322.5, 321.0, 315.5, 316.5, 
17:24:43.147155, 324.5, 338.0, 325.5, 323.5, 327.5, 324.0, 319.5, 318.5, 319.0, 575.5, 324.5, 322.5, 
17:24:43.155148, 325.5, 325.0, 315.5, 318.5, 329.0, 325.0, 322.0, 319.5, 322.0, 320.0, 310.5, 313.5, 
17:24:43.163145, 321.5, 327.0, 323.0, 324.0, 333.5, 328.0, 323.0, 320.5, 321.0, 634.5, 323.0, 323.5, 
17:24:43.171140, 318.5, 332.5, 319.5, 324.0, 331.5, 327.5, 327.0, 324.0, 320.5, 322.5, 314.5, 319.5, 
17:24:43.179132, 324.0, 318.5, 330.5, 323.5, 332.5, 326.5, 322.0, 320.0, 320.5, 635.0, 319.0, 316.5, 
17:24:43.187127, 322.0, 327.0, 314.0, 323.0, 331.5, 324.0, 321.5, 322.0, 323.0, 320.0, 329.5, 319.5, 
17:24:43.195155, 321.0, 330.5, 341.5, 322.5, 330.5, 328.5, 323.5, 320.0, 319.5, 634.5, 306.0, 320.5, 
17:24:43.203119, 320.5, 325.5, 300.0, 323.0, 329.5, 324.5, 321.0, 319.5, 320.0, 279.0, 326.0, 319.5, 
17:24:43.211111, 322.5, 328.5, 343.5, 321.5, 333.0, 324.5, 320.0, 318.0, 323.0, 634.0, 309.0, 316.5, 
17:24:43.219106, 319.0, 317.0, 297.0, 324.5, 330.0, 323.0, 321.0, 321.0, 322.5, 55.0, 334.5, 324.0, 
17:24:43.227132, 321.0, 326.0, 344.5, 321.5, 331.5, 323.5, 320.0, 317.0, 318.5, 635.5, 312.5, 317.5, 
17:24:43.235096, 322.5, 327.0, 285.0, 333.5, 332.5, 323.0, 321.0, 323.0, 324.0, 6.5, 329.0, 321.5, 
17:24:43.243093, 325.5, 333.0, 348.5, 315.5, 327.0, 325.5, 322.0, 317.5, 319.0, 634.0, 314.0, 315.5, 
17:24:43.251089, 318.5, 326.0, 288.5, 328.5, 332.0, 323.5, 320.0, 322.0, 322.5, 6.0, 343.0, 330.5, 
17:24:43.259110, 323.5, 331.5, 357.5, 320.0, 333.5, 331.0, 324.5, 318.0, 321.5, 635.5, 312.5, 314.5, 
17:24:43.267073, 318.0, 324.5, 290.0, 330.5, 335.0, 324.5, 322.5, 321.5, 321.5, 6.5, 346.5, 331.0, 
17:24:43.275099, 326.0, 323.5, 349.5, 312.0, 328.0, 326.0, 321.5, 320.5, 320.5, 635.0, 303.5, 309.5, 
17:24:43.283062, 319.0, 318.0, 293.0, 338.5, 332.0, 326.0, 323.5, 323.0, 322.0, 6.5, 344.0, 343.0, 
17:24:43.291057, 323.0, 327.5, 355.5, 310.5, 329.0, 326.0, 322.5, 316.5, 319.0, 633.5, 298.0, 311.5, 
17:24:43.299054, 319.5, 327.5, 300.0, 324.5, 332.5, 320.5, 320.0, 323.0, 325.0, 95.0, 345.0, 325.0, 
17:24:43.307078, 324.0, 345.0, 350.5, 302.0, 326.0, 322.0, 321.0, 316.0, 320.5, 634.5, 302.5, 303.0, 
17:24:43.315072, 323.0, 320.0, 301.0, 352.0, 339.0, 337.0, 325.0, 318.0, 314.0, 315.0, 326.0, 354.0, 
17:24:43.323068, 319.5, 316.5, 320.5, 314.5, 328.0, 321.5, 318.0, 317.0, 314.5, 320.5, 302.5, 305.5, 
17:24:43.331060, 323.0, 346.5, 325.0, 325.5, 329.5, 330.5, 328.5, 322.5, 325.0, 554.0, 329.0, 333.5, 
17:24:43.339026, 321.0, 335.0, 316.5, 320.5, 332.5, 327.0, 324.5, 322.0, 321.0, 320.0, 311.5, 315.5, 
17:24:43.347020, 322.0, 338.0, 328.0, 331.0, 334.5, 326.0, 322.5, 323.5, 324.5, 597.5, 330.0, 330.5, 
17:24:43.355015, 318.5, 327.0, 307.5, 323.0, 329.5, 324.0, 321.0, 319.0, 320.0, 293.5, 306.0, 317.0, 
17:24:43.363010, 325.0, 324.5, 328.0, 297.0, 329.5, 319.5, 319.5, 319.5, 322.5, 628.0, 324.5, 311.0, 
17:24:43.371005, 319.5, 325.0, 305.5, 329.5, 331.0, 325.5, 323.5, 323.0, 325.0, 170.0, 327.5, 324.0, 
17:24:43.379001, 323.5, 328.5, 341.0, 330.5, 338.5, 326.5, 321.5, 320.0, 319.5, 634.0, 314.0, 322.5, 
17:24:43.386994, 320.5, 321.5, 303.5, 330.0, 336.0, 328.0, 320.0, 319.0, 320.0, 81.5, 326.5, 327.0, 
17:24:43.394989, 323.5, 336.5, 336.5, 321.5, 332.0, 326.0, 320.5, 317.5, 317.5, 634.5, 311.0, 323.5, 
17:24:43.402984, 319.5, 318.0, 294.5, 323.0, 335.0, 323.5, 319.0, 321.0, 325.5, 5.5, 337.5, 315.5, 
17:24:43.410979, 322.5, 324.0, 343.5, 325.5, 332.5, 327.5, 321.5, 318.5, 320.0, 635.0, 304.5, 325.0, 
17:24:43.418973, 321.0, 331.0, 282.5, 330.5, 334.0, 320.5, 322.5, 322.5, 322.5, 5.0, 334.5, 331.0, 
17:24:43.426972, 324.5, 330.5, 351.0, 300.0, 327.0, 321.5, 319.5, 317.0, 318.0, 634.0, 314.5, 294.5, 
17:24:43.434962, 318.5, 333.5, 292.5, 327.0, 332.0, 322.5, 318.0, 319.5, 320.5, 5.0, 330.5, 327.0, 
17:24:43.442957, 324.0, 331.0, 360.5, 317.5, 329.0, 327.0, 323.0, 317.5, 324.0, 634.5, 309.0, 315.0, 
17:24:43.450954, 318.5, 327.5, 290.0, 338.0, 333.0, 325.0, 321.5, 322.0, 325.0, 7.5, 345.0, 335.0, 
17:24:43.458946, 323.5, 333.0, 354.5, 317.0, 326.5, 328.5, 326.0, 320.5, 320.0, 635.0, 302.0, 311.5, 
17:24:43.466941, 320.5, 324.5, 287.0, 323.5, 329.0, 324.0, 319.0, 320.5, 321.0, 6.0, 344.0, 338.0, 
17:24:43.474936, 323.0, 329.5, 359.5, 318.0, 331.0, 330.0, 324.0, 318.5, 321.0, 634.5, 302.5, 313.0, 
17:24:43.482958, 320.5, 325.0, 288.5, 332.0, 336.5, 325.0, 321.0, 321.0, 320.5, 101.0, 342.5, 334.0, 
17:24:43.490956, 324.5, 335.5, 363.0, 317.5, 331.0, 328.5, 322.5, 320.0, 322.0, 635.5, 304.0, 308.0, 
17:24:43.498919, 320.0, 324.5, 287.5, 330.0, 332.5, 324.5, 324.0, 321.5, 321.5, 176.5, 339.0, 333.0, 
17:24:43.506942, 322.5, 329.0, 360.5, 314.0, 333.0, 329.0, 324.0, 317.0, 320.5, 635.0, 300.0, 308.0, 
17:24:43.514942, 319.0, 320.5, 284.5, 330.5, 332.0, 321.5, 319.5, 321.5, 323.0, 232.0, 335.5, 336.5, 
17:24:43.522932, 325.0, 339.0, 371.0, 324.0, 328.0, 330.0, 325.0, 316.0, 323.0, 633.0, 283.0, 295.0, 
17:24:43.530927, 323.5, 326.5, 331.0, 320.5, 331.0, 326.0, 322.5, 320.5, 320.0, 594.0, 319.0, 321.0, 
17:24:43.538893, 320.0, 337.0, 308.5, 326.5, 329.0, 325.0, 321.0, 322.5, 321.0, 295.0, 318.5, 324.0, 
17:24:43.546918, 324.0, 332.5, 335.5, 329.0, 330.5, 330.5, 322.0, 320.0, 320.5, 624.0, 316.5, 326.5, 
17:24:43.554883, 320.5, 317.5, 304.0, 317.0, 331.5, 327.0, 326.0, 322.5, 323.5, 188.5, 327.5, 312.5, 
17:24:43.562878, 321.0, 330.5, 337.5, 327.0, 335.5, 327.5, 322.5, 320.0, 322.0, 636.0, 317.5, 321.0, 
17:24:43.570871, 322.5, 328.0, 298.0, 331.0, 336.5, 331.5, 327.5, 327.0, 322.5, 74.5, 328.0, 328.0, 
17:24:43.578865, 323.5, 330.5, 343.0, 320.5, 336.5, 327.5, 326.5, 321.5, 324.0, 636.5, 316.0, 321.5, 
17:24:43.586860, 318.0, 322.0, 292.0, 328.0, 333.0, 323.5, 321.5, 321.5, 322.5, 7.5, 333.0, 328.5, 
17:24:43.594854, 323.5, 330.0, 346.5, 324.0, 336.0, 328.5, 323.5, 317.5, 323.0, 636.0, 310.0, 317.5, 
17:24:43.602852, 318.0, 320.5, 290.5, 332.5, 330.0, 323.5, 320.5, 320.0, 321.5, 8.0, 338.0, 328.5, 
17:24:43.610866, 323.5, 334.5, 350.0, 323.5, 340.0, 327.5, 323.5, 321.0, 321.0, 635.5, 310.0, 317.0, 
17:24:43.618855, 321.0, 321.0, 286.5, 327.5, 336.5, 321.0, 321.5, 324.0, 326.5, 6.5, 340.5, 331.0, 
17:24:43.626856, 326.0, 333.5, 357.5, 320.5, 328.0, 327.0, 321.5, 318.5, 320.0, 635.0, 307.0, 315.5, 
17:24:43.634830, 319.5, 324.0, 293.5, 328.0, 332.5, 322.5, 320.0, 323.0, 325.0, 5.5, 339.5, 331.5, 
17:24:43.642854, 325.0, 335.0, 347.5, 316.5, 330.5, 326.5, 322.5, 317.5, 319.0, 634.5, 308.5, 311.0, 
17:24:43.650817, 320.0, 323.0, 294.5, 329.0, 334.5, 328.0, 324.5, 323.0, 321.5, 5.0, 343.0, 335.0, 
17:24:43.658842, 326.0, 334.0, 348.5, 316.5, 330.5, 327.5, 322.5, 318.0, 320.0, 635.0, 301.0, 308.0, 
17:24:43.666836, 319.0, 325.5, 297.5, 334.5, 332.5, 326.5, 321.5, 321.0, 321.5, 112.5, 341.5, 333.5, 
17:24:43.674804, 323.0, 335.0, 357.0, 320.0, 329.0, 327.0, 325.5, 320.0, 322.0, 636.0, 299.5, 310.5, 
17:24:43.682799, 323.5, 328.0, 296.0, 330.5, 331.5, 320.5, 321.5, 320.5, 320.0, 180.5, 336.0, 327.5, 
17:24:43.690822, 322.0, 338.5, 339.0, 321.0, 330.5, 332.5, 325.0, 318.5, 320.5, 635.5, 302.5, 312.0, 
17:24:43.698815, 321.0, 324.5, 304.0, 327.5, 330.5, 322.0, 319.0, 320.5, 321.0, 213.5, 335.5, 333.5, 
17:24:43.706811, 321.5, 332.5, 360.5, 316.0, 330.0, 329.5, 324.5, 319.5, 324.5, 271.0, 309.0, 310.5, 
17:24:43.714776, 319.0, 321.5, 275.0, 332.0, 336.5, 323.5, 323.5, 323.5, 322.5, 230.0, 334.5, 330.5, 
17:24:43.722770, 324.5, 332.5, 343.0, 321.0, 333.0, 330.0, 328.0, 319.0, 322.0, 371.5, 302.5, 323.0, 
17:24:43.730766, 324.0, 324.0, 327.0, 317.0, 329.0, 323.0, 316.0, 320.0, 320.0, 298.0, 332.0, 311.0, 
17:24:43.738759, 321.0, 318.5, 330.5, 325.0, 329.0, 326.5, 321.0, 322.0, 323.0, 287.0, 327.5, 322.5, 
17:24:43.746790, 321.5, 333.0, 313.5, 319.5, 327.5, 328.5, 331.0, 322.0, 318.0, 354.5, 312.5, 331.5, 
17:24:43.754777, 320.5, 318.5, 325.5, 325.0, 336.0, 317.0, 319.5, 322.5, 326.5, 283.5, 334.0, 325.5, 
17:24:43.762744, 324.5, 345.5, 335.0, 319.0, 327.5, 324.0, 318.0, 316.0, 315.0, 357.5, 310.5, 316.0, 
17:24:43.770769, 320.0, 341.0, 303.0, 328.0, 337.0, 333.0, 322.0, 321.5, 323.0, 275.5, 330.5, 328.5, 
17:24:43.778761, 322.0, 334.0, 367.0, 318.0, 330.5, 325.0, 323.0, 323.0, 328.0, 364.0, 323.5, 309.5, 
17:24:43.786757, 318.0, 325.0, 290.5, 330.5, 336.0, 324.0, 320.5, 320.0, 322.5, 269.0, 329.5, 324.5, 
17:24:43.794723, 323.5, 331.0, 322.5, 317.5, 330.0, 326.0, 322.0, 319.0, 315.5, 362.5, 297.5, 305.5, 
17:24:43.802716, 319.5, 324.0, 334.0, 332.5, 336.0, 327.0, 324.0, 326.5, 331.0, 266.0, 339.0, 330.5, 
17:24:43.810746, 322.5, 329.5, 320.0, 316.5, 328.0, 324.5, 322.0, 319.5, 324.5, 370.5, 317.5, 317.0, 
17:24:43.818707, 321.0, 329.5, 389.0, 332.5, 335.0, 326.5, 321.5, 321.0, 320.5, 265.0, 344.0, 326.5, 
17:24:43.826700, 322.5, 341.0, 342.5, 320.5, 331.5, 333.0, 324.5, 320.0, 322.0, 586.5, 308.0, 313.0, 
17:24:43.834701, 319.5, 329.0, 303.5, 335.5, 330.5, 321.5, 320.5, 323.5, 327.5, 319.0, 350.5, 341.5, 
17:24:43.842719, 322.5, 330.5, 333.5, 326.0, 335.0, 330.5, 324.0, 317.5, 323.5, 610.5, 314.5, 317.5, 
17:24:43.850696, 319.5, 327.0, 290.0, 325.5, 333.0, 321.0, 321.5, 324.5, 322.5, 60.5, 339.5, 328.0, 
17:24:43.858709, 323.0, 335.0, 335.0, 313.5, 326.5, 329.5, 323.5, 316.5, 317.0, 396.5, 292.5, 311.5, 
17:24:43.866705, 321.0, 327.0, 305.0, 331.0, 337.0, 323.5, 320.0, 324.0, 327.0, 84.0, 346.0, 336.5, 
17:24:43.874703, 325.0, 331.0, 361.0, 315.5, 330.0, 329.0, 323.5, 317.0, 319.0, 464.0, 297.0, 305.5, 
17:24:43.882700, 321.5, 326.5, 285.0, 332.0, 335.5, 323.5, 322.0, 324.5, 324.0, 134.5, 343.5, 338.5, 
17:24:43.890688, 325.5, 336.5, 382.0, 315.5, 330.0, 327.0, 323.0, 320.0, 320.0, 526.5, 297.0, 302.5, 
17:24:43.898685, 324.0, 332.0, 312.0, 323.0, 328.0, 323.0, 323.0, 320.0, 320.0, 478.0, 339.0, 335.0, 
17:24:43.906676, 320.5, 327.0, 328.0, 320.5, 333.0, 330.0, 326.0, 321.5, 323.5, 386.0, 315.0, 310.5, 
17:24:43.914643, 323.0, 328.5, 348.5, 324.0, 333.5, 326.5, 322.0, 322.0, 319.5, 588.0, 322.5, 323.0, 
17:24:43.922636, 320.5, 327.5, 320.5, 323.0, 333.5, 328.0, 323.5, 320.0, 323.0, 320.5, 316.0, 313.0, 
17:24:43.930660, 322.0, 329.0, 306.0, 328.0, 331.5, 327.0, 322.5, 320.5, 319.5, 502.5, 315.0, 322.5, 
17:24:43.938657, 320.5, 326.0, 318.5, 322.0, 330.0, 326.0, 322.0, 318.5, 321.0, 233.0, 321.0, 316.5, 
17:24:43.946649, 323.5, 330.0, 341.5, 320.0, 330.5, 327.0, 324.0, 320.0, 319.0, 555.0, 315.5, 319.0, 
17:24:43.954645, 322.0, 324.5, 294.5, 323.0, 330.0, 326.5, 324.5, 320.5, 323.5, 192.0, 323.5, 317.5, 
17:24:43.962642, 322.0, 328.0, 337.0, 320.5, 330.5, 327.5, 322.0, 320.0, 321.0, 582.5, 320.0, 321.5, 
17:24:43.970608, 321.0, 326.0, 314.5, 326.0, 334.5, 323.0, 320.5, 318.0, 317.5, 96.5, 321.5, 324.0, 
17:24:43.978633, 322.0, 329.5, 345.5, 320.0, 330.0, 326.5, 320.0, 319.0, 322.0, 583.0, 317.5, 321.5, 
17:24:43.986626, 321.5, 324.5, 291.0, 327.0, 330.5, 324.0, 322.5, 320.0, 321.5, 32.0, 328.5, 325.5, 
17:24:43.994626, 323.5, 337.0, 354.5, 325.5, 332.0, 323.5, 322.0, 322.5, 323.5, 637.0, 313.0, 315.0, 
17:24:44.002614, 320.0, 327.5, 289.5, 330.5, 330.0, 324.5, 320.0, 321.0, 322.0, 6.0, 330.5, 332.0, 
17:24:44.010607, 321.5, 328.0, 350.5, 323.0, 331.0, 326.5, 324.0, 320.0, 323.5, 637.5, 310.0, 313.0, 
17:24:44.018574, 320.5, 327.5, 288.5, 330.0, 333.0, 321.0, 321.0, 325.5, 322.0, 5.5, 340.0, 335.5, 
17:24:44.026598, 322.5, 328.0, 331.0, 317.5, 332.0, 323.5, 321.0, 317.5, 319.0, 635.0, 303.0, 311.5, 
17:24:44.034564, 318.0, 325.0, 290.5, 330.0, 332.0, 327.0, 322.0, 321.0, 323.5, 7.5, 341.0, 341.5, 
17:24:44.042586, 327.0, 336.0, 354.5, 315.0, 328.5, 326.5, 322.5, 318.5, 320.5, 634.5, 305.5, 309.0, 
17:24:44.050552, 321.0, 328.0, 285.0, 329.0, 334.5, 327.0, 322.0, 322.0, 321.5, 5.5, 345.5, 342.0, 
17:24:44.058547, 323.5, 329.5, 360.0, 314.5, 330.5, 327.5, 322.0, 317.5, 320.0, 637.0, 301.5, 307.0, 
17:24:44.066577, 318.0, 323.5, 292.5, 327.5, 332.0, 323.0, 321.0, 321.0, 321.0, 11.0, 343.5, 342.5, 
17:24:44.074545, 324.0, 330.0, 363.5, 317.0, 333.5, 326.5, 322.0, 317.0, 320.0, 635.0, 300.0, 305.0, 
17:24:44.082573, 321.5, 324.0, 291.0, 328.5, 331.5, 322.5, 320.5, 321.0, 323.0, 109.5, 343.0, 337.5, 
17:24:44.090529, 326.0, 333.0, 380.0, 309.0, 329.0, 330.0, 326.0, 318.0, 321.0, 634.0, 285.0, 291.0, 
17:24:44.098521, 322.0, 329.5, 322.0, 326.0, 333.5, 327.0, 322.0, 320.5, 323.0, 499.5, 326.0, 326.0, 
17:24:44.106514, 320.0, 329.0, 318.5, 323.5, 331.5, 329.5, 323.0, 320.0, 321.5, 319.5, 316.5, 319.5, 
17:24:44.114537, 325.5, 330.0, 328.0, 323.0, 334.0, 330.0, 324.0, 323.0, 319.0, 536.0, 319.5, 322.5, 
17:24:44.122503, 319.5, 327.5, 306.5, 327.5, 329.5, 325.5, 321.5, 321.5, 322.0, 320.5, 321.0, 316.5, 
17:24:44.130529, 324.5, 340.0, 333.0, 323.5, 333.0, 327.0, 323.5, 320.5, 321.0, 592.5, 315.5, 320.5, 
17:24:44.138521, 319.0, 332.0, 309.5, 325.5, 332.0, 325.5, 321.0, 318.5, 319.0, 275.0, 321.5, 318.0, 
17:24:44.146516, 321.5, 323.0, 327.5, 321.5, 330.5, 325.5, 321.5, 319.5, 324.5, 635.5, 323.5, 318.5, 
17:24:44.154484, 318.5, 323.0, 301.0, 329.5, 332.0, 329.0, 325.5, 322.0, 320.0, 181.5, 324.0, 330.5, 
17:24:44.162507, 323.5, 322.0, 337.0, 317.0, 328.0, 323.0, 319.5, 318.0, 319.5, 636.0, 306.0, 314.5, 
17:24:44.170473, 317.5, 336.5, 313.5, 336.0, 338.0, 326.0, 321.5, 321.0, 322.5, 96.0, 330.0, 323.5, 
17:24:44.178495, 322.5, 351.5, 332.5, 315.5, 327.5, 321.0, 319.0, 316.5, 317.0, 634.5, 310.0, 319.5, 
17:24:44.186462, 318.0, 340.5, 305.0, 332.0, 337.0, 323.0, 320.0, 319.5, 321.0, 6.0, 333.5, 325.5, 
17:24:44.194488, 321.5, 335.0, 354.0, 318.0, 331.0, 327.5, 324.5, 319.0, 319.0, 634.5, 309.0, 308.5, 
17:24:44.202479, 317.5, 356.5, 299.5, 328.0, 328.0, 321.5, 318.0, 317.5, 319.0, 5.0, 326.5, 325.5, 
17:24:44.210446, 324.0, 322.5, 336.0, 319.0, 333.5, 327.0, 322.5, 318.5, 322.0, 634.0, 313.0, 313.0, 
17:24:44.218445, 317.5, 317.5, 317.0, 331.0, 334.0, 326.5, 320.5, 320.5, 319.5, 5.0, 339.0, 331.0, 
17:24:44.226463, 322.0, 333.5, 342.5, 319.5, 329.0, 328.5, 325.0, 319.0, 321.0, 634.5, 305.5, 312.5, 
17:24:44.234429, 320.5, 309.5, 302.0, 332.5, 332.5, 326.5, 323.0, 322.5, 322.5, 6.5, 339.0, 331.5, 
17:24:44.242452, 328.0, 331.0, 346.0, 319.0, 328.5, 329.5, 325.0, 321.5, 326.0, 634.0, 309.5, 313.0, 
17:24:44.250446, 318.5, 344.5, 302.5, 332.5, 333.0, 326.5, 325.0, 327.0, 322.5, 6.5, 339.0, 332.0, 
17:24:44.258444, 323.5, 315.0, 345.0, 317.5, 329.5, 327.0, 324.0, 318.5, 316.5, 634.5, 294.0, 314.0, 
17:24:44.266436, 319.0, 333.5, 302.5, 331.5, 334.5, 328.5, 324.5, 324.0, 326.5, 94.0, 351.5, 341.0, 
17:24:44.274430, 322.5, 331.5, 337.5, 319.0, 333.5, 330.5, 326.0, 318.5, 321.0, 635.0, 304.5, 310.5, 
17:24:44.282427, 321.0, 330.0, 302.5, 326.5, 330.5, 323.0, 322.5, 324.0, 324.0, 174.5, 337.0, 332.0, 
17:24:44.290392, 322.0, 324.0, 345.5, 323.5, 327.5, 328.0, 322.5, 318.0, 318.0, 635.0, 303.0, 310.5, 
17:24:44.298386, 318.5, 320.5, 296.0, 326.5, 330.5, 321.0, 319.5, 323.5, 325.0, 247.5, 339.0, 330.0, 
17:24:44.306382, 322.5, 326.0, 342.0, 311.0, 331.5, 325.0, 323.0, 320.0, 321.5, 633.5, 300.0, 308.5, 
17:24:44.314375, 321.0, 336.0, 316.0, 327.0, 332.0, 328.0, 325.0, 319.0, 315.0, 539.0, 322.0, 318.0, 
17:24:44.322407, 319.0, 326.5, 310.0, 328.0, 332.0, 328.0, 322.0, 321.5, 323.0, 320.0, 325.0, 327.0, 
17:24:44.330365, 323.5, 323.5, 334.5, 321.5, 332.5, 324.5, 320.5, 319.0, 318.5, 609.0, 314.0, 320.0, 
17:24:44.338389, 317.5, 327.5, 306.5, 332.0, 335.0, 325.5, 321.0, 319.5, 320.0, 227.0, 326.0, 329.0, 
17:24:44.346385, 321.5, 326.5, 331.0, 320.0, 328.0, 325.5, 325.5, 321.5, 321.5, 635.0, 320.5, 318.5, 
17:24:44.354374, 320.5, 328.5, 308.5, 333.5, 334.5, 327.0, 322.0, 323.0, 323.5, 109.0, 327.0, 328.5, 
17:24:44.362343, 322.0, 330.5, 337.5, 315.0, 329.5, 322.5, 320.0, 318.5, 319.5, 634.0, 313.0, 312.0, 
17:24:44.370337, 318.5, 324.0, 302.5, 329.5, 333.5, 328.0, 323.5, 323.0, 323.5, 4.5, 336.0, 327.0, 
17:24:44.378332, 322.0, 328.5, 339.0, 315.5, 332.0, 327.0, 320.5, 317.0, 320.0, 636.0, 311.0, 310.5, 
17:24:44.386327, 316.5, 323.5, 304.0, 329.5, 331.5, 322.0, 319.5, 320.0, 323.0, 7.0, 339.0, 332.0, 
17:24:44.394322, 324.5, 333.0, 342.5, 319.0, 333.5, 327.0, 322.5, 319.0, 319.5, 635.0, 308.5, 315.0, 
17:24:44.402319, 323.5, 321.0, 292.0, 326.5, 331.0, 325.0, 322.0, 322.0, 322.5, 6.5, 334.5, 329.5, 
17:24:44.410311, 324.5, 335.0, 349.0, 319.5, 330.5, 329.5, 324.0, 320.5, 324.0, 636.5, 311.0, 314.5, 
17:24:44.418309, 318.0, 326.0, 306.5, 330.5, 335.0, 324.0, 322.5, 322.0, 321.5, 7.0, 341.5, 333.0, 
17:24:44.426303, 323.5, 331.0, 343.0, 319.5, 336.0, 328.0, 321.5, 317.5, 320.0, 639.0, 305.0, 309.5, 
17:24:44.434295, 318.5, 322.5, 299.0, 328.0, 332.5, 326.0, 323.0, 322.5, 324.0, 8.0, 339.0, 337.5, 
17:24:44.442290, 325.0, 331.0, 345.5, 318.5, 331.5, 330.0, 325.0, 318.0, 320.5, 633.5, 303.0, 308.5, 
17:24:44.450285, 320.0, 322.0, 303.0, 332.5, 329.5, 326.0, 319.5, 320.0, 321.5, 92.5, 335.5, 331.5, 
17:24:44.458280, 325.0, 334.0, 347.0, 320.0, 334.5, 321.0, 322.0, 318.5, 320.0, 634.5, 303.5, 309.5, 
17:24:44.466274, 318.5, 324.5, 297.5, 329.5, 333.0, 326.5, 323.0, 320.5, 321.5, 175.0, 336.5, 331.0, 
17:24:44.474269, 322.5, 334.5, 343.5, 315.0, 328.0, 326.0, 324.0, 317.0, 319.0, 634.0, 301.5, 309.0, 
17:24:44.482263, 318.5, 327.5, 299.5, 331.5, 329.0, 320.5, 318.5, 320.0, 323.0, 243.5, 338.0, 337.5, 
17:24:44.490258, 324.5, 326.5, 345.5, 312.5, 333.5, 330.0, 324.0, 320.0, 321.0, 634.5, 303.0, 303.5, 
17:24:44.498253, 320.5, 323.5, 303.5, 329.5, 331.5, 321.5, 321.0, 321.0, 321.5, 268.0, 336.5, 333.0, 
17:24:44.506247, 325.0, 334.0, 340.0, 320.0, 331.0, 331.0, 325.0, 320.0, 321.0, 539.0, 302.0, 305.0, 
17:24:44.514242, 322.0, 331.0, 363.0, 321.0, 331.0, 330.0, 326.0, 319.0, 321.0, 636.0, 319.0, 319.0, 
17:24:44.522237, 320.3333333333333, 325.3333333333333, 305.3333333333333, 326.0, 334.3333333333333, 327.3333333333333, 324.6666666666667, 320.6666666666667, 320.0, 307.6666666666667, 325.3333333333333, 324.6666666666667, 
17:24:44.530231, 322.5, 330.0, 332.5, 321.5, 331.5, 327.0, 321.5, 319.5, 320.5, 635.5, 317.5, 319.5, 
17:24:44.538226, 322.5, 324.0, 307.0, 328.0, 334.0, 325.5, 322.0, 325.0, 325.5, 54.5, 333.5, 328.0, 
17:24:44.546221, 322.5, 331.0, 330.0, 323.0, 338.5, 328.5, 320.0, 317.5, 318.0, 634.0, 308.5, 315.5, 
17:24:44.554215, 320.0, 328.5, 315.0, 328.5, 334.5, 327.0, 322.0, 325.0, 326.0, 5.0, 336.5, 321.5, 
17:24:44.562209, 322.0, 326.0, 334.5, 320.5, 330.0, 327.5, 322.5, 318.5, 317.5, 637.0, 302.5, 307.5, 
17:24:44.570204, 320.5, 326.0, 307.5, 330.0, 335.0, 323.0, 322.5, 325.0, 323.0, 7.0, 338.5, 331.5, 
17:24:44.578199, 324.0, 333.0, 343.5, 316.5, 329.0, 323.0, 322.0, 318.5, 320.5, 633.5, 308.0, 318.0, 
17:24:44.586194, 319.5, 320.5, 293.5, 334.0, 328.5, 325.0, 325.0, 322.5, 323.5, 6.5, 342.0, 324.0, 
17:24:44.594191, 325.5, 353.5, 354.0, 320.0, 331.0, 331.0, 321.5, 320.5, 322.0, 635.5, 308.0, 318.5, 
17:24:44.602214, 319.5, 320.5, 284.0, 326.0, 335.5, 320.0, 320.0, 321.0, 322.5, 4.5, 341.0, 338.0, 
17:24:44.610209, 322.5, 333.5, 347.5, 317.5, 332.5, 331.5, 328.0, 319.5, 319.5, 638.0, 307.0, 315.5, 
17:24:44.618172, 320.0, 314.5, 300.0, 331.5, 336.0, 323.5, 320.5, 320.0, 323.0, 97.0, 344.0, 334.0, 
17:24:44.626196, 324.0, 336.0, 378.0, 315.5, 329.0, 331.0, 323.5, 317.5, 319.5, 600.5, 306.5, 320.0, 
17:24:44.634193, 317.5, 323.5, 289.0, 328.0, 335.5, 318.5, 320.5, 319.5, 319.5, 153.5, 331.5, 331.5, 
17:24:44.642169, 323.5, 327.5, 348.0, 316.0, 330.5, 331.5, 327.5, 320.0, 322.5, 495.0, 300.0, 310.5, 
17:24:44.650152, 320.5, 327.0, 328.0, 329.5, 331.5, 324.0, 321.0, 323.5, 325.5, 187.0, 343.5, 326.0, 
17:24:44.658145, 325.0, 335.5, 327.5, 317.0, 330.0, 328.5, 323.0, 318.0, 320.5, 324.5, 299.5, 308.5, 
17:24:44.666145, 318.0, 311.5, 316.5, 326.5, 332.0, 322.5, 320.5, 320.5, 324.5, 238.5, 344.5, 333.0, 
17:24:44.677126, 324.0, 334.0, 352.0, 318.0, 335.0, 332.0, 327.0, 321.0, 325.0, 387.0, 296.0, 298.0, 
17:24:44.680176, 325.0, 333.0, 370.0, 318.0, 328.0, 326.0, 320.0, 322.0, 328.0, 385.0, 316.0, 312.0, 
17:24:44.684254, 324.0, 333.0, 304.0, 326.0, 332.0, 322.0, 322.0, 324.0, 317.0, 315.0, 319.0, 330.0, 
17:24:44.688352, 316.0, 316.0, 282.0, 333.0, 335.0, 324.0, 323.0, 327.0, 319.0, 191.0, 343.0, 336.0, 
17:24:44.693484, 321.0, 329.0, 346.0, 320.0, 334.0, 328.0, 321.5, 321.0, 321.0, 467.5, 301.5, 311.0, 
17:24:44.698520, 319.5, 322.5, 327.5, 331.5, 334.5, 323.5, 320.5, 323.0, 322.5, 428.5, 344.5, 331.5, 
17:24:44.706521, 321.0, 329.0, 328.0, 321.0, 332.5, 330.0, 323.0, 318.5, 320.0, 555.5, 301.5, 310.5, 
17:24:44.714514, 321.5, 327.5, 327.0, 332.0, 330.5, 321.0, 319.0, 322.0, 323.5, 283.0, 349.5, 327.5, 
17:24:44.722509, 323.5, 334.0, 320.0, 320.0, 334.0, 325.5, 324.0, 318.0, 318.5, 364.0, 295.0, 302.5, 
17:24:44.730504, 320.5, 324.5, 285.0, 328.0, 331.0, 323.5, 320.0, 321.5, 322.5, 272.5, 344.5, 336.5, 
17:24:44.738501, 323.5, 328.5, 335.0, 318.0, 333.0, 329.5, 326.0, 320.5, 322.0, 320.5, 304.0, 308.5, 
17:24:44.746493, 321.0, 327.0, 322.0, 321.0, 329.0, 321.0, 318.0, 321.0, 322.0, 616.0, 325.0, 326.0, 
17:24:44.754488, 321.0, 320.5, 278.5, 330.0, 329.0, 317.5, 323.5, 323.0, 323.0, 6.0, 338.0, 328.5, 
17:24:44.762482, 326.0, 335.5, 349.0, 317.5, 328.5, 325.5, 320.0, 317.5, 320.0, 635.0, 314.0, 316.0, 
17:24:44.770477, 322.0, 327.0, 298.5, 329.0, 333.0, 329.0, 321.0, 321.5, 321.5, 5.0, 344.0, 329.0, 
17:24:44.778472, 323.0, 330.5, 352.5, 315.5, 327.0, 321.5, 322.0, 317.5, 317.5, 636.0, 302.5, 314.0, 
17:24:44.786495, 321.5, 321.5, 303.0, 325.0, 331.0, 325.5, 320.5, 320.0, 321.5, 6.5, 339.5, 328.5, 
17:24:44.794460, 324.5, 334.5, 357.0, 320.5, 330.5, 333.0, 328.0, 318.5, 320.5, 634.0, 304.5, 310.0, 
17:24:44.802455, 323.0, 325.0, 300.0, 331.0, 336.5, 323.5, 321.5, 322.0, 323.0, 73.5, 341.0, 336.5, 
17:24:44.810479, 323.0, 331.0, 346.0, 316.0, 330.0, 327.0, 323.0, 318.0, 319.0, 637.0, 301.0, 306.0, 
17:24:44.818446, 321.0, 326.5, 316.0, 333.5, 333.5, 324.5, 320.5, 323.5, 323.5, 111.5, 339.5, 334.5, 
17:24:44.826474, 324.0, 333.0, 353.5, 318.0, 332.5, 330.5, 325.0, 319.5, 321.5, 638.0, 299.0, 305.0, 
17:24:44.834464, 321.0, 326.0, 261.5, 330.5, 334.5, 328.5, 322.5, 322.0, 321.5, 186.5, 336.5, 335.5, 
17:24:44.842459, 325.5, 332.5, 336.0, 314.5, 328.5, 331.5, 326.0, 321.5, 322.0, 634.0, 303.5, 300.0, 
17:24:44.850453, 318.0, 323.0, 294.5, 331.0, 333.0, 324.5, 318.0, 320.0, 319.5, 248.5, 339.5, 337.5, 
17:24:44.858421, 322.0, 331.5, 351.5, 317.0, 332.0, 329.5, 323.5, 320.5, 324.0, 637.5, 300.5, 302.0, 
17:24:44.866444, 321.0, 322.0, 284.5, 331.0, 332.0, 320.0, 320.0, 320.5, 321.0, 262.0, 337.0, 338.0, 
17:24:44.874409, 322.0, 329.0, 355.5, 321.0, 330.0, 333.0, 324.0, 318.5, 322.5, 583.0, 305.5, 291.0, 
17:24:44.882403, 320.0, 322.5, 303.5, 330.0, 332.5, 326.5, 321.0, 321.0, 321.5, 320.5, 343.5, 335.5, 
17:24:44.890429, 321.0, 329.0, 337.5, 310.5, 328.5, 322.0, 323.0, 318.0, 320.5, 466.5, 305.0, 304.0, 
17:24:44.898391, 319.5, 324.0, 305.5, 334.0, 333.0, 320.0, 321.0, 322.5, 322.5, 320.0, 338.0, 341.0, 
17:24:44.906422, 324.0, 328.0, 335.0, 317.5, 328.0, 329.0, 322.0, 317.5, 320.5, 368.5, 302.5, 303.5, 
17:24:44.914458, 320.0, 324.5, 298.0, 329.5, 331.5, 322.5, 319.5, 321.5, 322.5, 323.0, 340.5, 339.0, 
17:24:44.922377, 322.0, 329.5, 338.5, 321.0, 332.5, 330.0, 325.0, 320.0, 320.5, 321.5, 303.0, 306.0, 
17:24:44.930371, 320.0, 323.0, 308.0, 329.5, 331.5, 322.0, 319.5, 322.5, 324.5, 322.5, 339.0, 337.5, 
17:24:44.938367, 323.0, 329.0, 330.5, 321.0, 334.0, 327.0, 322.0, 317.5, 319.0, 320.0, 308.0, 308.5, 
17:24:44.946360, 320.5, 323.5, 294.5, 322.0, 330.5, 321.5, 319.5, 323.5, 320.5, 319.5, 334.0, 323.0, 
17:24:44.954360, 321.0, 328.0, 328.0, 322.0, 328.5, 323.0, 323.5, 316.0, 319.5, 319.5, 307.5, 310.0, 
17:24:44.962350, 324.0, 325.0, 323.0, 317.0, 327.0, 317.0, 317.0, 324.0, 327.0, 637.0, 323.0, 319.0, 
17:24:44.970349, 318.5, 325.0, 294.0, 333.5, 335.0, 330.0, 322.5, 321.0, 322.0, 6.5, 343.0, 336.0, 
17:24:44.978339, 322.5, 330.0, 353.0, 312.5, 330.5, 326.5, 324.0, 318.0, 319.0, 637.5, 305.5, 307.5, 
17:24:44.986335, 320.5, 326.5, 310.5, 330.0, 332.0, 323.0, 321.0, 324.5, 325.0, 7.5, 345.5, 339.5, 
17:24:44.994329, 325.0, 332.5, 350.0, 315.5, 333.5, 333.0, 326.0, 319.5, 321.5, 635.0, 304.0, 303.5, 
17:24:45.002322, 320.5, 323.5, 293.5, 329.0, 331.0, 323.5, 320.0, 322.0, 323.5, 97.0, 338.0, 337.5, 
17:24:45.010346, 322.5, 334.5, 337.0, 313.0, 330.5, 330.5, 330.0, 321.5, 320.0, 634.5, 299.5, 302.0, 
17:24:45.018313, 319.0, 323.0, 300.5, 331.0, 332.0, 323.5, 320.0, 322.0, 322.0, 177.5, 340.0, 338.0, 
17:24:45.026337, 325.0, 332.5, 330.5, 315.0, 333.0, 326.0, 322.5, 319.0, 322.0, 636.0, 298.5, 300.5, 
17:24:45.034331, 318.5, 323.0, 310.5, 331.0, 332.0, 322.5, 320.0, 322.0, 322.5, 240.0, 341.5, 338.0, 
17:24:45.042298, 324.5, 334.5, 350.0, 317.5, 329.0, 329.0, 326.5, 319.0, 319.0, 634.0, 301.5, 300.0, 
17:24:45.050320, 320.5, 327.5, 299.5, 328.0, 329.0, 324.5, 319.5, 321.0, 321.0, 274.0, 338.5, 342.0, 
17:24:45.058316, 323.0, 331.0, 343.5, 317.0, 335.0, 330.5, 328.0, 320.5, 322.0, 621.5, 305.0, 301.5, 
17:24:45.066309, 319.0, 323.0, 288.0, 330.0, 331.0, 321.5, 319.5, 323.0, 321.5, 321.5, 342.0, 342.0, 
17:24:45.074275, 322.5, 331.5, 351.0, 320.5, 331.0, 328.5, 327.0, 323.5, 327.0, 486.5, 306.5, 305.5, 
17:24:45.082300, 326.5, 328.0, 302.5, 336.0, 334.0, 326.0, 324.0, 323.0, 323.0, 325.0, 345.5, 345.0, 
17:24:45.090293, 324.5, 330.0, 342.0, 319.5, 334.0, 326.5, 323.0, 316.5, 317.5, 366.0, 299.5, 300.0, 
17:24:45.098258, 325.0, 330.0, 313.5, 331.5, 332.0, 323.5, 321.0, 324.0, 324.5, 319.0, 346.0, 344.0, 
17:24:45.106255, 321.5, 328.0, 337.0, 319.0, 333.0, 328.5, 325.5, 320.5, 321.0, 320.5, 304.0, 311.5, 
17:24:45.114249, 320.5, 326.5, 300.0, 329.5, 336.0, 326.0, 321.5, 322.5, 322.5, 321.0, 343.5, 342.0, 
17:24:45.122280, 322.0, 330.0, 333.0, 314.0, 331.5, 326.0, 323.0, 319.5, 322.5, 321.5, 306.5, 308.5, 
17:24:45.130238, 321.5, 326.5, 319.0, 328.5, 331.5, 333.0, 322.0, 318.5, 317.5, 320.0, 331.5, 337.5, 
17:24:45.138236, 320.5, 331.0, 334.5, 323.0, 334.5, 319.0, 323.5, 323.5, 321.5, 320.0, 311.0, 306.5, 
17:24:45.146228, 321.0, 328.5, 315.5, 327.0, 336.0, 326.0, 320.0, 319.0, 323.5, 321.5, 332.0, 337.5, 
17:24:45.154228, 320.5, 327.5, 329.0, 318.5, 329.5, 327.0, 324.0, 320.0, 320.5, 320.5, 312.5, 313.0, 
17:24:45.162217, 321.0, 336.0, 330.0, 312.0, 329.0, 314.0, 320.0, 319.0, 321.0, 635.0, 315.0, 299.0, 
17:24:45.170210, 323.0, 322.0, 284.5, 330.5, 331.5, 328.5, 320.5, 321.0, 321.0, 52.5, 341.0, 341.0, 
17:24:45.178206, 322.5, 332.0, 352.5, 315.0, 329.0, 328.0, 326.5, 317.5, 319.5, 635.5, 298.5, 299.5, 
17:24:45.186200, 319.5, 324.5, 301.5, 332.5, 332.0, 324.5, 321.0, 323.5, 321.5, 149.5, 340.5, 345.0, 
17:24:45.194237, 323.5, 334.5, 343.5, 315.0, 331.0, 328.5, 324.5, 319.0, 322.0, 634.5, 300.5, 298.0, 
17:24:45.202191, 324.5, 325.5, 319.5, 329.0, 330.0, 323.5, 323.0, 324.0, 321.0, 225.0, 340.5, 342.0, 
17:24:45.210185, 322.5, 331.0, 336.0, 315.5, 333.5, 330.5, 326.0, 318.0, 319.5, 636.5, 301.5, 297.5, 
17:24:45.218202, 319.0, 325.0, 312.0, 332.0, 331.0, 325.0, 324.0, 324.0, 323.0, 260.0, 342.5, 342.0, 
17:24:45.226203, 323.5, 333.5, 356.0, 314.5, 332.0, 329.0, 329.0, 320.0, 323.0, 636.5, 302.0, 298.5, 
17:24:45.234200, 321.0, 325.0, 297.5, 332.0, 331.0, 320.5, 317.5, 321.5, 320.0, 316.0, 343.0, 342.0, 
17:24:45.242192, 325.0, 329.5, 354.0, 316.5, 334.0, 329.0, 324.5, 319.5, 324.5, 566.0, 307.0, 298.5, 
17:24:45.250188, 318.5, 320.0, 288.5, 334.0, 340.5, 320.0, 316.5, 321.0, 326.5, 324.5, 339.5, 336.5, 
17:24:45.258182, 321.5, 334.5, 352.0, 320.0, 332.5, 333.0, 326.5, 319.0, 319.5, 426.5, 299.5, 308.0, 
17:24:45.266176, 323.5, 329.0, 297.5, 334.0, 332.5, 324.0, 321.0, 322.5, 323.0, 321.5, 339.0, 346.0, 
17:24:45.274142, 322.0, 332.5, 347.0, 316.5, 333.5, 330.0, 325.5, 322.0, 321.0, 320.0, 307.0, 302.5, 
17:24:45.282165, 325.0, 329.5, 300.0, 330.5, 335.0, 327.5, 323.5, 326.0, 322.0, 320.5, 337.0, 343.0, 
17:24:45.290132, 321.0, 332.0, 355.5, 321.0, 327.5, 324.5, 323.0, 317.5, 321.0, 319.5, 307.0, 304.0, 
17:24:45.298126, 320.5, 326.0, 311.5, 328.5, 332.0, 324.0, 321.5, 321.0, 321.0, 319.5, 337.5, 339.0, 
17:24:45.306121, 325.0, 331.0, 322.5, 320.5, 333.0, 334.0, 327.0, 318.0, 319.5, 319.5, 306.5, 309.5, 
17:24:45.314115, 322.5, 329.5, 312.0, 323.5, 328.5, 322.5, 320.5, 321.5, 322.5, 319.5, 333.5, 332.5, 
17:24:45.322111, 323.0, 326.0, 327.0, 320.0, 333.0, 328.0, 323.5, 319.5, 321.0, 321.5, 312.5, 304.0, 
17:24:45.330105, 322.5, 329.5, 318.0, 327.5, 334.0, 328.0, 322.0, 320.0, 320.5, 321.5, 326.0, 332.0, 
17:24:45.338101, 328.0, 327.0, 346.5, 322.5, 330.5, 329.5, 322.0, 319.0, 321.0, 319.5, 315.0, 311.0, 
17:24:45.346094, 320.5, 332.0, 296.0, 327.0, 330.0, 325.5, 324.0, 322.0, 322.0, 420.0, 323.5, 326.5, 
17:24:45.354088, 319.5, 326.5, 335.0, 322.5, 333.5, 330.0, 322.5, 319.0, 323.0, 321.5, 314.5, 319.5, 
17:24:45.362086, 322.5, 329.5, 339.5, 321.0, 329.0, 324.0, 321.0, 320.0, 320.5, 494.0, 325.5, 322.5, 
17:24:45.370079, 321.5, 328.0, 316.0, 324.5, 332.5, 322.0, 322.5, 320.0, 320.5, 321.5, 316.5, 316.0, 
17:24:45.378073, 322.5, 331.5, 328.0, 321.5, 330.5, 331.0, 325.0, 320.5, 322.0, 564.5, 319.0, 314.5, 
17:24:45.386067, 321.0, 327.5, 322.0, 326.5, 332.5, 325.0, 322.5, 321.5, 321.0, 321.0, 324.0, 321.0, 
17:24:45.394062, 324.0, 327.5, 311.5, 322.5, 334.0, 325.5, 323.5, 322.5, 324.0, 593.0, 311.5, 313.0, 
17:24:45.402057, 319.5, 322.5, 314.0, 326.5, 330.0, 324.5, 324.0, 321.0, 324.0, 321.0, 328.0, 323.5, 
17:24:45.410052, 326.0, 334.5, 335.0, 321.5, 332.5, 330.0, 323.5, 321.0, 322.0, 636.5, 313.0, 316.5, 
17:24:45.418046, 322.0, 317.0, 288.0, 341.0, 333.0, 310.0, 318.0, 323.0, 319.0, 9.0, 356.0, 356.0, 
17:24:45.426041, 321.5, 331.5, 345.5, 318.5, 333.5, 330.0, 325.0, 320.5, 321.5, 521.5, 303.0, 302.5, 
17:24:45.434035, 319.5, 326.5, 309.5, 333.0, 333.0, 323.0, 322.5, 322.0, 321.0, 323.0, 347.5, 341.0, 
17:24:45.442060, 322.0, 330.5, 332.5, 316.5, 329.5, 328.0, 323.5, 319.0, 322.0, 418.0, 302.5, 301.0, 
17:24:45.450025, 319.5, 323.5, 300.5, 331.5, 332.5, 323.5, 321.5, 326.0, 323.0, 321.0, 344.0, 340.5, 
17:24:45.458019, 324.0, 330.5, 321.0, 314.5, 327.5, 325.5, 321.0, 317.0, 321.0, 321.5, 303.0, 303.5, 
17:24:45.466014, 319.5, 322.5, 319.0, 335.0, 335.0, 323.0, 318.5, 320.0, 320.0, 320.5, 339.5, 341.5, 
17:24:45.474010, 323.0, 330.0, 336.0, 318.0, 330.0, 331.0, 322.5, 318.5, 320.0, 320.5, 310.0, 308.0, 
17:24:45.482003, 324.0, 328.0, 327.0, 329.5, 331.0, 321.5, 320.5, 322.0, 324.0, 322.0, 338.5, 335.5, 
17:24:45.489998, 320.5, 328.5, 315.5, 318.0, 331.5, 323.5, 323.5, 320.0, 321.0, 321.5, 310.5, 313.0, 
17:24:45.497993, 321.5, 329.0, 334.0, 329.5, 337.5, 328.0, 322.0, 324.5, 326.0, 322.5, 341.0, 335.0, 
17:24:45.505988, 320.5, 328.0, 325.0, 327.0, 327.5, 325.0, 322.5, 318.0, 320.0, 320.5, 311.0, 309.5, 
17:24:45.513982, 323.5, 332.0, 324.0, 322.0, 329.0, 322.5, 322.0, 323.5, 324.0, 329.5, 331.5, 330.5, 
17:24:45.521977, 325.0, 328.0, 305.5, 323.0, 335.0, 330.0, 324.0, 321.5, 319.0, 320.5, 311.5, 310.5, 
17:24:45.529972, 324.0, 332.5, 335.5, 327.5, 331.0, 324.5, 320.5, 320.0, 321.0, 444.5, 325.5, 325.0, 
17:24:45.537967, 321.0, 327.0, 324.5, 324.5, 338.0, 327.0, 322.5, 319.0, 322.0, 322.0, 322.5, 316.0, 
17:24:45.545961, 322.0, 329.0, 312.5, 320.5, 329.0, 323.5, 320.5, 318.5, 318.0, 506.5, 314.5, 307.0, 
17:24:45.553958, 322.0, 327.5, 320.5, 323.0, 329.5, 325.0, 322.5, 320.5, 322.0, 320.0, 319.0, 317.5, 
17:24:45.561950, 325.0, 331.0, 324.5, 322.0, 334.0, 327.0, 322.5, 321.5, 324.0, 569.0, 323.5, 322.5, 
17:24:45.569946, 321.0, 328.5, 312.5, 327.0, 333.5, 330.5, 324.5, 321.0, 322.5, 321.0, 325.5, 319.0, 
17:24:45.577940, 321.5, 328.5, 344.0, 319.5, 330.5, 324.5, 322.0, 319.5, 323.0, 617.0, 319.0, 318.0, 
17:24:45.585935, 322.5, 323.5, 295.0, 325.5, 332.5, 328.0, 320.5, 319.0, 319.0, 319.0, 324.0, 319.5, 
17:24:45.593937, 324.5, 331.5, 348.0, 319.5, 329.0, 326.0, 323.0, 320.5, 322.5, 636.0, 319.5, 316.5, 
17:24:45.601924, 320.0, 325.5, 306.0, 328.5, 331.5, 322.5, 320.5, 320.0, 321.5, 196.5, 324.5, 329.0, 
17:24:45.609917, 321.5, 330.0, 343.5, 319.5, 333.5, 329.0, 324.5, 321.5, 321.0, 635.0, 314.5, 319.5, 
17:24:45.617957, 318.0, 321.0, 284.0, 341.0, 333.0, 319.0, 317.0, 322.0, 320.0, 6.0, 361.0, 360.0, 
17:24:45.625943, 324.0, 332.5, 335.5, 316.5, 328.5, 329.0, 324.5, 319.0, 320.0, 384.0, 301.5, 301.5, 
17:24:45.633942, 320.5, 325.5, 324.0, 338.0, 333.5, 321.0, 319.5, 322.0, 323.5, 322.5, 346.0, 343.5, 
17:24:45.641896, 323.0, 331.0, 325.0, 319.0, 332.5, 331.0, 325.5, 321.0, 321.5, 321.0, 298.5, 302.5, 
17:24:45.649891, 319.5, 324.5, 310.5, 330.5, 333.0, 317.5, 319.0, 320.5, 323.0, 321.0, 341.5, 343.0, 
17:24:45.657885, 323.0, 331.0, 332.5, 315.5, 329.0, 335.5, 323.0, 319.0, 321.5, 322.0, 309.0, 306.5, 
17:24:45.665881, 322.5, 322.5, 306.0, 325.5, 329.5, 322.5, 323.0, 323.5, 327.5, 321.5, 340.0, 338.0, 
17:24:45.673874, 320.5, 328.5, 327.0, 320.5, 329.5, 326.5, 322.5, 317.0, 318.0, 319.5, 306.0, 308.0, 
17:24:45.681889, 322.0, 329.0, 326.0, 325.5, 331.0, 324.5, 318.0, 323.0, 326.5, 321.5, 335.5, 335.0, 
17:24:45.689863, 320.5, 333.5, 326.0, 318.5, 330.5, 326.0, 323.0, 319.5, 322.0, 319.5, 312.5, 311.5, 
17:24:45.697866, 322.5, 331.0, 303.0, 321.5, 329.5, 324.0, 322.5, 319.0, 319.0, 359.5, 319.5, 322.0, 
17:24:45.705862, 321.5, 326.0, 337.5, 322.0, 328.5, 325.0, 321.5, 319.5, 322.0, 321.5, 315.0, 312.5, 
17:24:45.713866, 322.0, 326.0, 317.0, 326.0, 333.0, 323.5, 322.0, 320.0, 320.5, 453.0, 321.0, 328.5, 
17:24:45.721842, 321.0, 327.5, 333.0, 323.0, 332.5, 329.0, 324.0, 319.5, 321.0, 320.5, 319.0, 312.5, 
17:24:45.729862, 321.5, 327.5, 336.0, 320.0, 329.5, 326.5, 322.5, 322.5, 324.5, 538.0, 323.5, 320.5, 
17:24:45.737836, 319.0, 325.0, 314.5, 325.5, 333.0, 325.0, 323.0, 319.5, 323.0, 322.5, 319.5, 315.0, 
17:24:45.745828, 323.0, 328.5, 331.0, 328.0, 335.0, 325.0, 320.0, 318.5, 322.0, 587.0, 314.0, 316.0, 
17:24:45.753821, 319.5, 326.0, 303.0, 326.0, 338.0, 328.0, 323.0, 321.5, 322.0, 321.0, 320.5, 319.0, 
17:24:45.761840, 322.0, 327.5, 352.0, 318.5, 328.5, 325.0, 327.0, 325.0, 321.0, 634.5, 319.5, 317.5, 
17:24:45.769811, 319.5, 324.5, 289.0, 325.0, 328.0, 323.5, 321.0, 323.5, 319.0, 303.5, 324.0, 328.5, 
17:24:45.777808, 322.5, 331.0, 335.0, 319.0, 334.5, 329.5, 320.0, 319.5, 322.0, 634.0, 317.5, 314.5, 
17:24:45.785802, 317.5, 321.5, 301.0, 327.5, 328.5, 323.0, 318.5, 318.5, 320.0, 173.0, 333.5, 331.0, 
17:24:45.793825, 323.5, 329.0, 327.0, 318.0, 329.5, 325.0, 323.0, 320.0, 321.5, 634.5, 315.5, 314.5, 
17:24:45.801823, 321.0, 324.5, 307.0, 332.5, 335.5, 326.0, 322.5, 322.5, 321.0, 30.5, 341.0, 336.5, 
17:24:45.809785, 322.5, 331.5, 335.0, 313.5, 324.0, 318.5, 317.5, 315.0, 319.0, 634.5, 306.5, 300.5, 
17:24:45.817779, 320.0, 327.0, 315.0, 331.5, 333.5, 324.5, 323.5, 324.0, 323.0, 6.5, 346.5, 341.0, 
17:24:45.825777, 323.5, 331.5, 360.5, 315.0, 329.0, 319.0, 320.0, 316.5, 316.5, 634.5, 303.5, 311.0, 
17:24:45.833797, 323.0, 325.0, 288.0, 324.0, 328.0, 338.0, 328.0, 328.0, 320.0, 5.0, 357.0, 375.0, 
17:24:45.841764, 320.5, 328.5, 337.5, 318.5, 330.0, 327.0, 323.5, 321.5, 324.5, 321.5, 309.0, 305.0, 
17:24:45.849759, 324.0, 331.0, 315.0, 326.0, 330.0, 322.5, 320.5, 321.0, 324.5, 321.5, 338.5, 338.5, 
17:24:45.857787, 321.5, 329.0, 333.5, 319.0, 331.0, 329.5, 326.0, 322.0, 324.0, 319.0, 313.0, 308.0, 
17:24:45.865784, 325.0, 327.5, 312.0, 326.0, 332.5, 324.0, 321.5, 319.5, 318.0, 319.5, 329.5, 329.5, 
17:24:45.873770, 322.0, 327.0, 335.0, 320.0, 331.0, 331.0, 326.0, 320.0, 321.5, 320.5, 311.0, 312.0, 
17:24:45.881765, 321.5, 327.0, 323.5, 322.0, 335.0, 324.0, 322.0, 318.5, 319.5, 401.0, 323.0, 329.0, 
17:24:45.889730, 323.5, 326.5, 325.5, 321.0, 335.0, 326.5, 322.5, 320.5, 321.0, 320.0, 314.5, 310.0, 
17:24:45.897756, 321.0, 332.0, 315.0, 324.5, 334.5, 330.0, 324.5, 325.0, 321.0, 480.0, 318.5, 325.0, 
17:24:45.905722, 320.5, 327.0, 335.5, 321.0, 329.0, 322.5, 321.0, 321.0, 326.0, 320.5, 321.0, 313.5, 
17:24:45.913715, 322.5, 327.5, 317.5, 319.0, 327.5, 325.5, 323.0, 318.5, 318.5, 584.0, 316.0, 322.0, 
17:24:45.921719, 321.0, 327.5, 320.5, 326.0, 333.5, 326.5, 319.0, 320.0, 323.5, 320.5, 321.0, 309.5, 
17:24:45.929708, 323.5, 329.5, 333.0, 322.0, 332.5, 328.0, 322.0, 319.0, 320.0, 597.5, 321.0, 320.0, 
17:24:45.937700, 319.0, 325.5, 294.5, 328.5, 335.5, 328.5, 321.0, 319.0, 322.5, 320.5, 322.5, 320.0, 
17:24:45.945697, 322.0, 330.5, 330.5, 321.5, 331.0, 316.0, 321.0, 320.0, 318.0, 634.5, 313.5, 314.0, 
17:24:45.953689, 318.0, 324.0, 303.5, 327.5, 333.0, 334.5, 323.0, 323.0, 325.0, 306.0, 326.0, 334.5, 
17:24:45.961737, 322.5, 330.5, 336.5, 321.5, 332.0, 326.5, 321.5, 319.5, 320.5, 633.5, 315.0, 311.0, 
17:24:45.969678, 319.5, 323.5, 307.5, 332.5, 334.0, 323.0, 321.5, 323.0, 324.5, 146.5, 330.0, 330.0, 
17:24:45.977728, 322.0, 329.5, 335.5, 316.0, 326.5, 326.5, 323.0, 319.5, 321.0, 633.0, 314.0, 315.0, 
17:24:45.985667, 321.5, 321.0, 299.5, 332.5, 334.5, 326.0, 322.0, 323.5, 323.0, 4.5, 335.5, 335.0, 
17:24:45.993665, 323.0, 331.5, 339.5, 318.5, 335.5, 328.5, 323.5, 319.0, 322.5, 636.0, 311.5, 310.0, 
17:24:46.001657, 323.0, 320.5, 290.5, 329.0, 332.0, 325.0, 322.0, 319.5, 321.5, 6.0, 338.5, 341.0, 
17:24:46.009651, 326.0, 338.0, 338.5, 318.0, 334.0, 329.0, 323.5, 320.5, 324.5, 634.5, 306.5, 308.5, 
17:24:46.017646, 320.0, 326.0, 319.0, 334.0, 333.5, 324.5, 321.0, 323.5, 325.5, 7.5, 348.0, 344.5, 
17:24:46.025641, 324.0, 332.5, 345.0, 314.5, 331.5, 325.5, 323.0, 318.0, 321.0, 637.0, 297.5, 304.5, 
17:24:46.033635, 320.5, 326.5, 310.5, 334.0, 330.0, 323.5, 323.0, 320.5, 321.0, 5.5, 346.5, 347.5, 
17:24:46.041631, 323.0, 330.5, 353.5, 310.5, 328.5, 328.0, 324.0, 318.0, 320.0, 634.5, 302.0, 295.5, 
17:24:46.049626, 324.0, 333.0, 291.0, 333.0, 334.0, 323.0, 320.0, 321.0, 320.0, 6.0, 342.0, 355.0, 
17:24:46.057621, 321.0, 330.5, 334.5, 318.5, 331.0, 330.0, 324.5, 319.5, 321.5, 320.5, 313.5, 309.0, 
17:24:46.065614, 322.0, 330.0, 320.0, 321.5, 328.0, 324.5, 321.5, 321.5, 325.0, 423.0, 325.5, 330.0, 
17:24:46.073609, 322.5, 328.0, 329.5, 321.0, 331.5, 327.5, 323.5, 321.0, 321.0, 319.5, 316.5, 311.5, 
17:24:46.081604, 322.0, 330.0, 328.0, 320.5, 330.5, 329.0, 322.0, 318.5, 320.5, 507.5, 319.5, 325.5, 
17:24:46.089599, 322.0, 330.0, 332.0, 327.5, 333.0, 329.0, 321.0, 322.0, 321.0, 322.0, 321.5, 312.5, 
17:24:46.097622, 321.0, 327.5, 308.0, 320.5, 329.5, 324.0, 321.5, 320.5, 320.5, 594.0, 314.0, 320.0, 
17:24:46.105587, 319.0, 325.0, 330.0, 330.5, 334.5, 327.5, 325.0, 321.5, 325.5, 321.0, 327.5, 317.0, 
17:24:46.113611, 324.0, 333.5, 326.0, 317.5, 328.0, 330.0, 327.5, 320.5, 323.0, 605.5, 320.0, 316.5, 
17:24:46.121606, 319.5, 326.5, 321.0, 329.0, 333.5, 324.5, 323.0, 323.0, 319.5, 320.0, 326.0, 323.0, 
17:24:46.129600, 321.5, 326.5, 314.0, 322.5, 328.0, 323.5, 321.5, 319.0, 322.5, 636.0, 315.0, 315.5, 
17:24:46.137567, 320.0, 324.5, 311.5, 334.0, 336.5, 324.5, 321.0, 320.5, 325.5, 238.0, 340.0, 327.0, 
17:24:46.145592, 322.5, 330.0, 341.5, 318.0, 329.5, 323.0, 323.5, 322.0, 321.0, 635.5, 315.5, 315.5, 
17:24:46.153554, 319.0, 324.0, 296.5, 333.5, 335.0, 328.0, 324.0, 320.5, 320.5, 82.5, 332.0, 335.0, 
17:24:46.161549, 324.0, 334.0, 347.0, 314.5, 331.5, 322.5, 320.0, 318.0, 319.5, 634.0, 308.5, 314.5, 
17:24:46.169547, 319.0, 325.5, 286.0, 333.5, 329.0, 318.0, 319.5, 320.5, 323.0, 8.5, 335.0, 337.0, 
17:24:46.177568, 325.0, 332.5, 334.5, 314.5, 334.0, 329.0, 323.5, 318.5, 320.0, 634.0, 306.0, 307.0, 
17:24:46.185533, 319.5, 326.5, 306.0, 336.0, 333.5, 321.5, 318.5, 322.0, 322.0, 6.0, 344.0, 341.0, 
17:24:46.193529, 323.5, 331.5, 362.0, 318.0, 327.0, 329.5, 322.5, 319.0, 321.0, 634.0, 312.0, 309.0, 
17:24:46.201524, 319.5, 323.0, 264.0, 327.5, 333.5, 321.0, 320.5, 322.0, 321.0, 8.0, 341.0, 341.5, 
17:24:46.209522, 323.5, 331.5, 345.5, 313.0, 330.5, 329.5, 323.5, 317.5, 320.5, 634.5, 303.0, 303.5, 
17:24:46.217517, 320.5, 324.5, 310.0, 330.0, 330.5, 323.0, 319.0, 321.0, 321.5, 4.5, 346.0, 346.0, 
17:24:46.225507, 326.5, 332.5, 346.5, 311.0, 328.5, 330.0, 327.0, 320.0, 322.0, 634.0, 301.0, 302.0, 
17:24:46.233502, 319.5, 321.5, 302.0, 331.5, 333.0, 321.0, 320.0, 323.0, 324.5, 8.5, 349.5, 343.5, 
17:24:46.241498, 324.0, 335.0, 339.0, 311.5, 332.0, 329.5, 323.5, 317.5, 320.5, 634.5, 295.5, 302.0, 
17:24:46.249492, 318.0, 320.5, 299.5, 334.5, 333.0, 320.5, 321.0, 325.0, 322.0, 112.0, 345.0, 347.5, 
17:24:46.257488, 326.0, 335.0, 348.0, 314.0, 334.0, 349.0, 332.0, 318.0, 322.0, 635.0, 288.0, 278.0, 
17:24:46.265481, 325.0, 333.5, 333.0, 326.5, 327.0, 322.0, 321.0, 323.0, 324.0, 506.5, 324.5, 327.5, 
17:24:46.273504, 320.0, 328.0, 319.0, 319.5, 329.5, 323.5, 323.0, 320.0, 321.0, 321.5, 323.5, 310.5, 
17:24:46.281470, 322.5, 332.0, 316.0, 320.0, 329.0, 327.5, 325.0, 323.0, 320.5, 574.0, 315.5, 319.5, 
17:24:46.289494, 321.0, 327.0, 316.0, 323.5, 328.5, 325.0, 322.5, 320.0, 320.5, 320.5, 323.5, 318.5, 
17:24:46.297459, 324.0, 329.5, 332.5, 317.0, 331.5, 328.0, 325.5, 318.5, 321.0, 635.5, 319.0, 318.0, 
17:24:46.305458, 321.5, 327.5, 310.5, 326.5, 331.5, 324.5, 322.0, 321.0, 322.0, 320.0, 327.5, 322.5, 
17:24:46.313449, 320.5, 325.5, 322.5, 319.0, 334.5, 326.0, 321.0, 317.0, 320.0, 636.5, 308.5, 317.0, 
17:24:46.321443, 320.0, 323.5, 300.5, 331.5, 329.5, 323.0, 320.0, 321.5, 326.5, 220.0, 334.0, 318.0, 
17:24:46.329467, 323.5, 330.0, 353.0, 318.5, 332.0, 328.0, 322.0, 319.0, 323.0, 634.5, 311.5, 315.5, 
17:24:46.337431, 318.5, 322.5, 320.0, 329.0, 330.5, 322.5, 320.0, 321.0, 321.5, 67.5, 340.0, 333.5, 
17:24:46.345456, 322.0, 329.0, 349.0, 316.0, 330.0, 327.0, 324.0, 317.5, 319.5, 635.5, 309.0, 312.0, 
17:24:46.353421, 320.5, 328.0, 298.5, 330.5, 331.5, 322.0, 319.0, 321.0, 320.5, 6.0, 339.5, 338.5, 
17:24:46.361417, 325.0, 334.0, 332.5, 315.0, 330.5, 324.5, 320.0, 317.0, 320.0, 635.0, 306.0, 313.5, 
17:24:46.369411, 317.5, 321.0, 301.5, 333.5, 332.0, 323.0, 321.5, 323.5, 322.0, 7.0, 345.0, 343.5, 
17:24:46.377406, 323.0, 333.0, 347.0, 311.5, 333.0, 329.0, 323.0, 321.5, 325.5, 636.5, 303.5, 308.0, 
17:24:46.385401, 320.5, 324.5, 299.0, 329.0, 328.5, 321.0, 318.0, 320.5, 320.5, 5.0, 347.0, 342.0, 
17:24:46.393399, 324.0, 334.0, 358.5, 318.5, 331.0, 340.5, 330.0, 318.0, 320.5, 636.0, 301.0, 305.5, 
17:24:46.401394, 318.5, 321.0, 284.5, 328.5, 330.0, 317.0, 319.0, 320.0, 319.5, 5.5, 337.0, 347.0, 
17:24:46.409388, 324.0, 334.0, 363.5, 314.0, 335.0, 329.0, 322.5, 320.0, 323.0, 634.5, 301.5, 298.0, 
17:24:46.417383, 319.5, 325.0, 276.0, 331.5, 332.5, 325.5, 322.0, 323.5, 322.0, 35.0, 344.0, 346.5, 
17:24:46.425375, 324.0, 335.5, 357.5, 316.0, 329.0, 329.0, 324.5, 318.0, 320.0, 634.5, 290.0, 298.5, 
17:24:46.433369, 319.5, 323.5, 320.5, 332.0, 335.0, 323.5, 323.0, 325.5, 325.0, 120.0, 347.5, 338.5, 
17:24:46.441364, 325.5, 333.5, 351.0, 312.0, 328.0, 327.0, 323.5, 318.0, 320.0, 636.0, 291.5, 300.0, 
17:24:46.449359, 323.0, 322.5, 302.5, 332.0, 331.5, 324.0, 320.5, 323.0, 323.5, 214.0, 346.5, 341.5, 
17:24:46.457387, 322.0, 330.5, 331.5, 311.0, 332.0, 332.5, 329.5, 317.5, 319.5, 634.0, 291.5, 295.5, 
17:24:46.465348, 323.0, 328.0, 296.0, 328.0, 332.0, 324.0, 320.0, 321.0, 323.0, 542.0, 333.0, 337.0, 
17:24:46.473342, 320.5, 330.0, 322.0, 328.0, 334.5, 328.5, 321.5, 319.0, 322.5, 319.0, 321.0, 302.5, 
17:24:46.481337, 325.0, 333.0, 339.5, 322.0, 334.0, 326.0, 322.5, 320.0, 321.5, 622.5, 320.0, 321.5, 
17:24:46.489364, 321.0, 322.0, 309.5, 327.5, 333.5, 329.5, 322.5, 320.0, 323.0, 322.5, 328.5, 321.5, 
17:24:46.497326, 324.0, 335.0, 315.0, 321.5, 328.5, 331.5, 322.0, 319.0, 319.5, 638.0, 312.0, 321.0, 
17:24:46.505327, 319.0, 324.0, 314.5, 325.0, 330.5, 323.0, 320.0, 321.0, 322.0, 235.5, 333.0, 326.5, 
17:24:46.513316, 322.5, 330.5, 326.5, 323.0, 331.0, 326.0, 324.0, 319.5, 319.5, 636.5, 309.5, 309.0, 
17:24:46.521313, 321.0, 324.0, 305.0, 328.5, 331.5, 322.0, 321.5, 322.0, 321.5, 67.5, 337.0, 336.0, 
17:24:46.529305, 321.5, 328.5, 326.0, 315.5, 329.5, 325.0, 320.5, 318.5, 320.0, 634.0, 304.5, 307.0, 
17:24:46.537301, 319.5, 326.5, 310.0, 331.5, 331.5, 323.0, 320.5, 320.5, 321.5, 5.5, 345.0, 338.5, 
17:24:46.545295, 324.5, 332.5, 348.0, 315.0, 331.0, 329.5, 322.5, 317.0, 318.5, 634.5, 300.5, 307.5, 
17:24:46.553288, 319.5, 323.0, 303.5, 332.5, 333.5, 323.5, 320.5, 323.5, 321.0, 5.0, 345.0, 341.5, 
17:24:46.561284, 323.5, 331.0, 334.0, 313.0, 328.0, 326.0, 323.0, 318.5, 321.0, 635.0, 301.0, 299.5, 
17:24:46.569277, 319.5, 324.5, 305.0, 333.0, 329.5, 322.0, 318.5, 321.5, 322.0, 5.5, 342.0, 343.5, 
17:24:46.577273, 330.0, 333.5, 367.0, 317.0, 332.5, 334.5, 325.0, 319.5, 323.0, 638.5, 303.5, 309.0, 
17:24:46.585268, 321.5, 328.0, 311.5, 329.0, 331.0, 322.5, 319.5, 322.0, 323.5, 8.5, 353.5, 347.0, 
17:24:46.593262, 325.0, 335.0, 350.0, 307.5, 329.5, 327.5, 321.0, 317.5, 321.0, 637.0, 295.5, 296.5, 
17:24:46.601285, 319.5, 321.5, 307.0, 333.5, 331.5, 322.5, 321.0, 323.0, 327.0, 38.5, 347.5, 345.0, 
17:24:46.609281, 324.0, 337.5, 359.5, 313.0, 331.5, 330.5, 326.0, 322.0, 322.0, 637.5, 294.5, 300.0, 
17:24:46.617246, 318.5, 322.0, 286.0, 331.0, 331.5, 325.0, 324.0, 324.0, 323.5, 122.5, 344.5, 340.5, 
17:24:46.625241, 327.5, 333.5, 349.0, 316.0, 328.5, 329.5, 324.5, 318.0, 321.0, 635.5, 295.0, 297.0, 
17:24:46.633237, 321.5, 322.5, 276.5, 336.0, 331.0, 323.0, 319.5, 322.0, 322.5, 224.0, 343.5, 343.5, 
17:24:46.641231, 326.5, 336.0, 364.5, 314.0, 333.0, 328.5, 325.0, 317.5, 318.5, 634.5, 291.0, 294.0, 
17:24:46.649224, 321.0, 327.0, 314.0, 324.0, 338.0, 327.0, 323.0, 325.0, 322.0, 536.0, 343.0, 333.0, 
17:24:46.657218, 321.6666666666667, 329.3333333333333, 333.3333333333333, 322.6666666666667, 331.3333333333333, 326.6666666666667, 324.0, 322.6666666666667, 324.3333333333333, 428.3333333333333, 316.6666666666667, 316.6666666666667, 
17:24:46.665215, 319.5, 321.5, 285.5, 337.5, 329.0, 319.5, 318.0, 321.0, 320.5, 312.0, 342.5, 342.5, 
17:24:46.673240, 326.0, 335.0, 357.5, 314.5, 333.5, 334.0, 326.5, 318.5, 322.5, 637.0, 302.5, 299.0, 
17:24:46.681204, 327.0, 327.0, 302.0, 322.0, 329.0, 329.0, 319.0, 319.0, 320.0, 634.0, 327.0, 327.0, 
17:24:46.689199, 318.0, 323.0, 305.0, 331.5, 334.5, 324.5, 320.5, 322.0, 323.5, 196.0, 334.5, 333.5, 
17:24:46.697193, 324.5, 328.5, 338.5, 317.5, 330.5, 327.0, 322.0, 319.0, 321.5, 633.5, 311.0, 318.5, 
17:24:46.705188, 318.5, 328.0, 317.5, 332.5, 330.5, 328.5, 322.0, 320.0, 321.5, 51.0, 340.5, 330.5, 
17:24:46.713199, 324.0, 328.5, 331.0, 315.0, 329.5, 322.5, 323.5, 319.0, 320.5, 635.0, 308.0, 310.0, 
17:24:46.721177, 318.5, 321.5, 301.5, 332.0, 332.5, 322.0, 320.0, 321.0, 323.0, 5.0, 343.0, 338.0, 
17:24:46.729172, 323.5, 331.0, 346.0, 315.5, 329.5, 328.0, 323.0, 321.0, 320.5, 636.5, 309.5, 303.0, 
17:24:46.737167, 321.0, 321.0, 280.0, 326.0, 335.0, 321.0, 319.0, 319.0, 319.0, 6.0, 340.0, 340.0, 
17:24:46.745191, 323.5, 330.5, 337.5, 314.5, 330.5, 329.5, 325.5, 322.0, 323.5, 637.0, 304.0, 304.0, 
17:24:46.753157, 319.0, 324.5, 293.0, 333.5, 330.0, 324.5, 322.5, 324.5, 321.0, 5.5, 346.5, 351.0, 
17:24:46.761179, 326.0, 330.5, 362.0, 312.5, 328.5, 330.0, 326.5, 318.0, 320.5, 634.0, 297.5, 302.0, 
17:24:46.769154, 321.5, 323.5, 283.0, 333.0, 337.0, 322.5, 319.5, 320.5, 321.0, 5.5, 345.5, 344.5, 
17:24:46.777169, 324.5, 334.0, 335.0, 316.0, 329.5, 329.0, 322.5, 317.5, 319.5, 636.0, 291.5, 299.5, 
17:24:46.785164, 320.0, 325.5, 286.5, 330.0, 331.5, 322.5, 320.0, 321.5, 322.0, 135.5, 349.0, 343.0, 
17:24:46.793158, 325.0, 332.0, 365.0, 310.5, 329.0, 327.5, 323.5, 316.5, 322.5, 635.0, 294.5, 290.0, 
17:24:46.801152, 320.0, 323.5, 282.0, 333.0, 334.5, 326.0, 321.0, 324.5, 325.5, 150.0, 345.0, 344.0, 
17:24:46.809148, 324.5, 333.0, 349.0, 315.5, 327.0, 326.0, 325.0, 317.0, 320.0, 634.0, 289.5, 296.0, 
17:24:46.817143, 319.5, 321.0, 305.5, 334.5, 334.0, 325.5, 319.0, 321.0, 320.5, 218.0, 348.0, 342.0, 
17:24:46.825137, 322.5, 333.5, 324.0, 316.0, 334.0, 332.0, 325.0, 320.0, 324.0, 635.5, 290.5, 293.5, 
17:24:46.833103, 319.5, 326.5, 308.5, 335.0, 336.0, 322.5, 323.5, 320.0, 323.0, 277.0, 349.5, 340.5, 
17:24:46.841128, 323.5, 332.5, 350.0, 316.0, 334.0, 327.5, 323.5, 317.5, 321.5, 634.0, 294.5, 297.5, 
17:24:46.849092, 320.5, 322.5, 298.0, 331.5, 331.5, 322.0, 322.0, 324.5, 323.0, 304.5, 344.5, 343.0, 
17:24:46.857087, 321.5, 331.0, 343.0, 315.0, 329.0, 328.0, 325.0, 321.0, 322.5, 635.0, 299.0, 298.0, 
17:24:46.865081, 320.0, 322.5, 300.0, 334.5, 333.0, 323.5, 320.0, 322.5, 323.0, 322.5, 349.0, 349.0, 
17:24:46.873078, 323.0, 328.0, 318.5, 313.5, 328.5, 330.0, 324.5, 319.0, 320.5, 503.5, 294.5, 297.5, 
17:24:46.881093, 322.0, 332.0, 332.0, 331.0, 335.0, 330.0, 320.0, 320.0, 328.0, 638.0, 326.0, 325.0, 
17:24:46.889064, 320.5, 322.5, 306.0, 331.0, 335.0, 323.0, 320.5, 320.5, 321.0, 46.0, 335.5, 332.0, 
17:24:46.897060, 322.5, 332.0, 341.0, 321.0, 327.5, 328.5, 321.5, 318.0, 319.0, 636.0, 307.5, 312.5, 
17:24:46.905054, 318.5, 321.5, 302.5, 329.5, 332.0, 322.0, 320.0, 321.5, 320.5, 5.0, 341.5, 340.0, 
17:24:46.913049, 323.5, 332.5, 344.5, 320.0, 329.5, 327.5, 323.5, 320.5, 323.0, 634.5, 307.5, 311.0, 
17:24:46.921042, 319.5, 325.5, 309.5, 335.0, 332.5, 323.0, 320.5, 323.0, 324.5, 9.5, 355.0, 336.5, 
